"Pnx","X (m)","Y (m)","Z (m)"
4.26343178460589,-0.56674990869146,0.575317557264368,0.997778327
4.29034430613813,-0.561736996725128,0.566964919375903,0.997778327
4.3449855773314,-0.554550998571325,0.554806047582737,0.997778327
4.380072972885,-0.548791851525518,0.544938158907474,0.997778327
4.42631411793149,-0.543964853688692,0.536513531286183,0.997778327
4.45194228467141,-0.536714786780535,0.523693047789231,0.997778327
4.4702269328525,-0.532587239505445,0.516339375699331,0.997778327
4.51510680877246,-0.528014626545937,0.507974568041841,0.997778327
4.55213427847834,-0.520576868685833,0.494224807729936,0.997778327
4.57657380640126,-0.516527780223662,0.486640592614805,0.997778327
4.62642477221763,-0.511566458721364,0.477075341616244,0.997778327
4.66746391499089,-0.504712039967427,0.463587315500777,0.997778327
4.68598766175538,-0.500882485313584,0.455898075184975,0.997778327
4.7307969820438,-0.496082105688679,0.446045271768199,0.997778327
4.76008244974647,-0.489317632806706,0.432006965644164,0.997778327
4.78990057109057,-0.485658528331512,0.424357423646276,0.997778327
4.83625835958773,-0.481354061691588,0.414966410270276,0.997778327
4.86193080680376,-0.474548748546125,0.399824645897836,0.997778327000001
4.89263674713356,-0.470313194371331,0.390185571683597,0.997778327
4.93489360688598,-0.466861813579023,0.382047339394464,0.997778327
4.96401983950714,-0.461304881781449,0.368771059197756,0.997778327
5.00515866758529,-0.456458290121572,0.356974330519078,0.997778327
5.06978867826623,-0.453348313437656,0.349143776218336,0.997778327000001
5.08180934467084,-0.448926692710202,0.337720405353616,0.997778327
5.10719061974825,-0.44325045500125,0.322507328206821,0.997778327
5.12340097344186,-0.439642945285657,0.312436464364155,0.997778327
5.14836345113981,-0.43681593441298,0.304366205643105,0.997778327
5.17347951643491,-0.432470921588003,0.29131739450283,0.997778327
5.1764933605344,-0.427651424128583,0.276155076702905,0.997778327
5.18350495861642,-0.424418575939263,0.265822441323811,0.997778327
5.24053635957442,-0.421966084061202,0.257762973373599,0.997778327
5.24153285808452,-0.418150459264993,0.244827439634535,0.997778327
5.23850353510808,-0.41382272677888,0.229616835853363,0.997778327
5.25337535579601,-0.408376670769379,0.207631605507434,0.997778327
5.24499250859404,-0.410177034422798,0.215403777920714,0.997778327
5.25206907877678,-0.406339152464354,0.198747183070513,0.997778327
5.2654445511069,-0.402869346458449,0.183194502519792,0.997778327
5.27088432489789,-0.399739674849273,0.167905352999677,0.997778327
5.26337261592034,-0.396829426221027,0.152692973527935,0.997778327
5.25556190496041,-0.393041596436618,0.130208006537469,0.997778327000001
5.2646848464841,-0.394266402456008,0.138002324711686,0.997778327
5.27417948753651,-0.391720698697674,0.121729414260082,0.997778327
5.27614256149864,-0.389506451690975,0.106272723213446,0.997778327
5.26370517380589,-0.387698250277708,0.0908311805132991,0.997778327
5.24264789552337,-0.38616930629745,0.0753929479884689,0.997778327
5.27128585354345,-0.38480566262611,0.0599763498932421,0.997778327
5.2566327053659,-0.383833748654214,0.0446171154213512,0.997778327
5.31214857246757,-0.382497959816636,0.0030755994340974,0.997778327
5.2551183064743,-0.38280486998297,0.013855710307901,0.997778327
5.27815862834063,-0.383258660958873,0.0292461922281927,0.997778327
-2.84125719414667,-3.08370024530451,0.558526492064873,0.997778327
-2.30174107270035,-3.08823138566903,0.543121413544771,0.997778327
-1.58727727121101,-3.09150174217787,0.531513421010768,0.997778327
-0.329979656182336,-3.09360087978028,0.52374900853591,0.997778327
0.171639468314124,-3.09669425050657,0.512024953720463,0.997778327
0.458669321792087,-3.10072633113088,0.496477558110271,0.997778327
0.87763480907009,-3.10438221900931,0.48101253683575,0.997778327
1.44348981754671,-3.1070680097924,0.46840699859099,0.997778327
2.93275875017098,-3.10868987457882,0.460621532458228,0.997778327
3.31268584423364,-3.11087897015832,0.449843313432389,0.997778327
3.47462433320901,-3.11398589739733,0.434256795811167,0.997778327
3.74031305574086,-3.11698869146883,0.418756679849325,0.997778327
4.01612821320066,-3.1199204310764,0.403243819701014,0.997778327
4.39653946918381,-3.12252151812941,0.3891186667534,0.997778327
5.55935467114386,-3.12392499588783,0.381329540566849,0.997778327
5.84019383340923,-3.1254201738289,0.372128955530017,0.997778327
6.05751861270077,-3.12789847066359,0.356510917627893,0.997778327
6.14976528325113,-3.13035753926115,0.340914599308223,0.997778327
6.25517218541012,-3.13273878731052,0.325407428578668,0.997778327
6.43088928543414,-3.13496702967481,0.309870593580477,0.997778327
6.52946200434421,-3.1370821857265,0.294306526787632,0.997778327
6.66541568166701,-3.13869595988062,0.282371151080184,0.997778327
8.15311240356506,-3.13975188215493,0.274583363993732,0.997778327000001
8.1509238364069,-3.14129068729312,0.263169138264391,0.997778327
8.12213661311681,-3.14335563137398,0.247551908404673,0.997778327
8.17035133701622,-3.14506318266668,0.231952664347967,0.997778327
8.13050516778293,-3.14641478757406,0.216419701781795,0.997778327000001
8.14745865817791,-3.14770301985079,0.20086405086669,0.997778327
8.23802724388005,-3.1489452981283,0.185304482050505,0.997778327
8.32655621362471,-3.15013936770117,0.169739842621599,0.997778327
8.31875652216872,-3.15121785256762,0.154169695156974,0.997778327
8.27030680864008,-3.15221096377872,0.138596312610078,0.997778327
8.22469099512452,-3.15314985811703,0.123021402134053,0.997778327
8.21532341546638,-3.15392037136671,0.10744532056092,0.997778327
8.18061493219069,-3.15452219141137,0.091870588769678,0.997778327
8.2077673558093,-3.15483358141192,0.0831517232948681,0.997778327
9.86272437650047,-3.15510865749447,0.0753662267116917,0.997778327
9.84302205763413,-3.15560285509187,0.0607277928299124,0.997778327
9.67274426102503,-3.15635893736006,0.00311423158367474,0.997778327
9.80552218335944,-3.15594734512734,0.0451566911367873,0.997778327
9.70428610382181,-3.15625943761735,0.0140142545785225,0.997778327
9.74975578878108,-3.15611294977566,0.0295855310208599,0.997778327
-3.56556887911964,-3.07913803450353,0.573161538784326,0.997778327
-4.71932370431584,-3.07659428134469,0.581002792860707,0.997778327
-5.3446379194674,-3.07362729401579,0.589620057696255,0.997778327
-5.89366909219218,-3.06816721913558,0.604951554860586,0.997778327
-5.96388382808411,-3.06731699387128,0.665354963801004,0.997778327
-0.659353449758317,-3.06556852422602,0.665060742542941,0.997778327
-10.59666424064,-3.06869892550843,0.665853815460071,0.997778327
-5.9045655815135,-3.06331811362896,0.617732117168157,0.997778327
-40.9777648388379,-3.06241810161484,0.699243435409766,0.997778327
-37.7468737047808,-3.05978526334937,0.700180538295059,0.997778327
-30.5878857532402,-3.07077871142828,0.666878796173344,0.997778327
-54.5914637539696,-3.06433853146655,0.69833674297236,0.997778327000001
0.0873390612320635,-3.06213281025823,0.664640585364864,0.997778327
-4.40540238002964,-3.05534182044048,0.637083605287164,0.997778327
-6.84797541995586,-3.06016719866646,0.625610813073461,0.997778327000001
-6.17203409447168,-3.05727633599992,0.63254881302774,0.997778327
-32.5275499190385,-3.05782533575474,0.700869417888033,0.997778327
-78.8740830778814,-3.0716543146701,0.667857187661447,0.997778327000001
-55.1843576318985,-3.06633974236648,0.697266381759965,0.997778327
0.431635717488174,-3.05850374473035,0.66434977377007,0.997778327000001
-4.05353537711924,-3.05351910037962,0.641107954835791,0.997778327
-24.5842149237266,-3.04715298000343,0.703976663079535,0.997778327
-26.6311714507442,-3.05776761855239,0.700887892014382,0.997778327
-26.6311714507442,-3.05770558719689,0.700904467844957,0.997778327
-26.6311714507442,-3.05377027168812,0.702069784337989,0.997778327
-50.4527163897385,-3.07161175076741,0.669390655930003,0.997778327000001
-65.3902787421615,-3.06831615100403,0.695775070086343,0.997778327
0.232919705290125,-3.05471299392715,0.664064127513744,0.997778327
-2.5070899721932,-3.05075474295697,0.647067034569835,0.997778327
-19.5161626320709,-3.04326692256671,0.704999370060138,0.997778327
-39.7627662928245,-3.07108369371922,0.671271825236603,0.997778327
-36.8487311047313,-3.07038969804739,0.672679853818427,0.997778327
-63.044902313833,-3.06949142916022,0.694698384895921,0.997778327
-17.4931133328238,-3.03845449770846,0.706066830660006,0.997778327
0.0688309519168395,-3.05100857316923,0.663791175170377,0.997778327
0.0853787678842383,-3.04272942648485,0.6628642335474,0.997778327
-0.353702347782097,-3.04493494774802,0.658673278135802,0.997778327
-0.482306615557383,-3.04579363658297,0.657039407301799,0.997778327
-2.93129292964804,-3.04866695712263,0.651366517152046,0.997778327
-30.0745333080343,-3.06979090613921,0.673581928428857,0.997778327
-61.9477828018365,-3.06952230082603,0.694648865091661,0.997778327
-60.6586440566117,-3.07029276231466,0.693401915279615,0.997778327
-14.9498535734051,-3.03096658202234,0.707611965602501,0.997778327
0.0184393933071264,-3.04858507177972,0.663613476398092,0.997778327
0.0182280056817241,-3.04429202994632,0.663304748019088,0.997778327
0.0328795334778095,-3.04290698943894,0.663204945801154,0.997778327
0.0291734576071821,-3.04370569291443,0.661004958602943,0.997778327
-0.733986808217406,-3.04654173158211,0.655612385216769,0.997778327
-0.733986808217406,-3.0472514657158,0.654229925084538,0.997778327000001
-13.6797157342233,-3.02337984694387,0.709054833864675,0.997778327
-23.8038827154325,-3.06868387108291,0.674394921965989,0.997778327
-58.2259811683595,-3.07168154223398,0.69074427308694,0.997778327
-11.4089464856415,-3.00997016709078,0.711333781997155,0.997778327
0.0668553110309758,-3.04664474572899,0.663473615632369,0.997778327
-9.35062712538906,-3.05669652517294,0.677954698473976,0.997778327
-13.3074813856824,-3.05669652517294,0.678122952068799,0.997778327
-11.9275431907571,-3.01584781621096,0.710377092483007,0.997778327
-18.9602961604777,-3.06639026349625,0.675580171410044,0.997778327
-60.0760556530249,-3.0728500905995,0.687775600727994,0.997778327
-9.17339999619737,-3.00609654501339,0.711901544399992,0.997778327
-9.40235489567201,-3.05827161879815,0.677622462863407,0.997778327000001
-9.54855298053817,-3.06028511907061,0.677200490140535,0.997778327000001
-22.4899698378415,-3.06479406068009,0.680480968560322,0.997778327
-13.9314577849333,-3.05902371360239,0.678801157165708,0.997778327
-10.3584960937999,-3.06295100027246,0.676645790946266,0.997778327000001
-15.6156283811945,-3.0648852086288,0.676239110047508,0.997778327000001
-11.8168582453344,-3.0672180887521,0.681141113898412,0.997778327
-11.7117543056011,-3.06552504146511,0.680690560379773,0.997778327
-26.8088781962933,-3.07364867519506,0.685029229531672,0.997778327
-81.5259913326894,-3.07356079205284,0.685679309021948,0.997778327
-8.64964035153159,-3.00053430374255,0.712618961684085,0.997778327
-8.089843106818,-2.99295061613654,0.71356636335719,0.997778327
-13.497329763808,-3.0628542267334,0.679900557614043,0.997778327
7.39146404896162,-2.94338865899047,0.71547792413901,0.997778327
0.518485699060061,-2.94326312034509,0.71547293406704,0.997778327000001
8.25697003770404,-2.9453132374208,0.715746062306376,0.997778327
8.25697003770404,-2.94578107115956,0.715819405740085,0.997778327
8.25697003770404,-2.94668763624524,0.715957442457728,0.997778327000001
-5.47132924355457,-2.97020684780087,0.715878567369099,0.997778327
-13.6780433972247,-3.06980223371754,0.682022457191323,0.997778327
-34.3153598968667,-3.07162724583849,0.68309801940046,0.997778327
-29.1714270447827,-3.07274359196251,0.684273387018605,0.997778327000001
-6.77340899422194,-2.9853693559629,0.71442330694363,0.997778327
-6.22600414725987,-2.97773412762341,0.715187716067533,0.997778327
-4.77160203387774,-2.96316109482855,0.716455167638784,0.997778327
-0.979371352423149,-2.95467390506996,0.716961814292586,0.997778327
8.40720280908205,-2.94426855894867,0.715602570846391,0.997778327
6.23406906802125,-2.94290288394588,0.715443058880293,0.997778327000001
6.61004335607918,-2.94193203365298,0.715343343845794,0.997778327
16.6916597171935,-2.94850037179483,0.716396382139404,0.997778327
-0.536074201578533,-2.9525840349427,0.716990475242076,0.997778327
-4.05684117516591,-2.9578802520648,0.716825856769566,0.997778327
3.89515544921259,-2.93920624500829,0.715076827929338,0.997778327
9.67715866425553,-2.95072189901649,0.71687250335132,0.997778327
4.50072869294884,-2.93512114246384,0.714527942754878,0.997778327
12.0324171268224,-2.92490875773813,0.71438939877107,0.997778327
2.6971991553791,-2.93066555455014,0.714255676384494,0.997778327
-1.4634396069633,-2.93286953798948,0.714176228514696,0.997778327
-1.11752690670074,-2.92228793975417,0.714369141946653,0.997778327
-2.97329031753061,-2.91497801277335,0.714644452219534,0.997778327
-2.66281655405693,-2.92702842081021,0.714402922004375,0.997778327
-2.37497957741485,-2.91811451042605,0.714511303960513,0.997778327
-2.92570160455372,-2.91295268501195,0.714741517019855,0.997778327
-2.91477828906208,-2.91003835796804,0.714879246835399,0.997778327
-2.89244011354684,-2.90609865037071,0.715063927794772,0.997778327000001
-2.88342522648071,-2.90217863535555,0.715246950548775,0.997778327
-2.88400118220563,-2.89825270340192,0.715431028151827,0.997778327
-2.88140633270945,-2.8948236642247,0.715591465396641,0.997778327
-2.88140633270945,-2.89217345135707,0.715712245001703,0.997778327
-2.88140633270945,-2.88907979136823,0.715854911599103,0.997778327
-2.88140633270945,-2.89035509647504,0.71579483607589,0.997778327
-2.81922026727772,-2.88451012239671,0.716062922567722,0.997778327
-2.87019709185399,-2.87668060787361,0.716421233890491,0.997778327
-2.7270156122401,-2.86887922851723,0.716771759244742,0.997778327
-2.806087315772,-2.86108001557624,0.717117640785748,0.997778327
-2.7574673610303,-2.85327977978724,0.717463595188429,0.997778327
-2.80712495105409,-2.82634842079023,0.718641896884229,0.997778327
-2.79265748128044,-2.8456783831913,0.7177961760162,0.997778327000001
-2.84243003692484,-2.83797520862974,0.718135990119634,0.997778327
-2.91585613610571,-2.82454258396941,0.71871764983102,0.997778327
-2.79468305423927,-2.8277306571341,0.718582957979094,0.997778327
-2.86660776120313,-2.83144659784672,0.718422770571965,0.997778327
-2.56778280660244,-2.82117576251875,0.718847058419495,0.997778327
14.1241879335875,-2.81762874066377,0.718577470046475,0.997778327
35.3771778782936,-2.81238751027686,0.716291454462063,0.997778327
35.3771778782936,-2.81368646073485,0.717037364941437,0.997778327
35.3771778782936,-2.81507080711992,0.717868299655848,0.997778327
8.12183172056604,-2.80956317283392,0.715720380154113,0.997778327
-3.63504002065709,-2.80516524875166,0.715547946658251,0.997778327
-4.46192079387881,-2.79562088441851,0.71623334191216,0.997778327
-4.95944146257199,-2.80090302171602,0.7158229387119,0.997778327
-4.42234555433029,-2.79760778467708,0.716086958512018,0.997778327
-4.00057694026971,-2.79480767449959,0.71629184978224,0.997778327
-4.04776089898761,-2.79144020539717,0.716499143964229,0.997778327
-0.0259200617011048,-2.13902990259693,0.723943356575709,0.997778327
16.9524769554306,-2.78358863765464,0.716243700960172,0.997778327
3.63864364887773,-2.78628032719848,0.716553077218557,0.997778327
-0.0690001257744378,-2.15464635359384,0.72391338864294,0.997778327
28.4329794993815,-2.78251658216242,0.715960624836055,0.997778327
26.3518603622067,-2.781252310576,0.715435346914069,0.997778327
-0.0948837674989133,-2.17025506705934,0.723862586936031,0.997778327
43.8279004320795,-2.779524657442,0.714397239567732,0.997778327000001
-0.118421270386608,-2.18586000335325,0.723785163064129,0.997778327
41.8173177431872,-2.77826754935241,0.713341478268395,0.997778327000001
-0.128787146576904,-2.20147193903609,0.723692690855001,0.997778327
36.4592914893294,-2.77696650223167,0.712363801727215,0.997778327
-0.141349223652965,-2.21707935577956,0.723597245117375,0.997778327
12.21002878267,-2.77547526142247,0.711665929871971,0.997778327
18.1284733638289,-2.77356893736609,0.711135338775646,0.997778327
-0.183823719108338,-2.2326946645626,0.723476951579099,0.997778327
-1.51672045020878,-2.77187760930029,0.710760843137873,0.997778327
1.25587230217537,-2.77021313281841,0.710799834381485,0.997778327
-0.165890500956069,-2.24830965385332,0.723350900312887,0.997778327
-2.15493445542232,-2.76902091873299,0.710826112186495,0.997778327000001
-2.15493445542232,-2.76679096417212,0.71091480437734,0.997778327000001
-2.15493445542232,-2.76410817192962,0.711022167122435,0.997778327
-2.15493445542232,-2.76441655882361,0.711009608344488,0.997778327
-0.178249010004276,-2.26391627033668,0.723236294753258,0.997778327
-1.92455991856552,-2.75961984087621,0.711204290503291,0.997778327
-2.03021673315582,-2.76191099913508,0.711111396159322,0.997778327
-0.194719625389911,-2.27952802684589,0.723110656688964,0.997778327
-1.88376406185445,-2.7576310635736,0.711283020769141,0.997778327
-0.293898328769325,-2.29513112204552,0.722938862663537,0.997778327
-1.82697976996577,-2.75194367311761,0.711505355111429,0.997778327
-1.83675999399239,-2.74721362568437,0.711689320773494,0.997778327
-0.294732221091613,-2.31073245776654,0.722724475847881,0.997778327
-1.78853261169603,-2.74324903454566,0.711842774131282,0.997778327
-1.81132005886207,-2.72573072631969,0.712517000066484,0.997778327
-1.81132005886207,-2.72471732047963,0.712555589414214,0.997778327
-1.81132005886207,-2.72507908861255,0.712541376204274,0.997778327000001
-0.336009373606154,-2.32635928911862,0.72250634480763,0.997778327
-1.79449660572471,-2.73313636322775,0.712232684739755,0.997778327
-1.82794358822827,-2.72415206598273,0.7125774374244,0.997778327
-0.287481599153738,-2.3419876809215,0.72229407756635,0.997778327
-1.67890712340909,-2.71634988846805,0.712859043592386,0.997778327
-0.362966175223065,-2.35759952484388,0.722058797558719,0.997778327
-1.62762633533539,-2.70108559368875,0.71340019687734,0.997778327
-0.36221819932509,-2.37321140000884,0.721793054525043,0.997778327000001
-1.62267706241182,-2.68543511529719,0.713947317769115,0.997778327
-0.343839198109216,-2.38882349732036,0.721547065488478,0.997778327000001
-1.56055056269675,-2.66982374252281,0.714491229279101,0.997778327
-0.35561868817251,-2.40443576715744,0.721316364299875,0.997778327
-1.44754816637185,-2.65421374510251,0.715020055171941,0.997778327
-0.433690208055569,-2.42004749398095,0.721050416659776,0.997778327
-1.40809373786417,-2.63860492673169,0.715537521523535,0.997778327
-0.475380875493411,-2.43565853459873,0.720744873426852,0.997778327
-1.26841288641262,-2.62299689636892,0.716042386944528,0.997778327
-0.502782750324162,-2.45126928915836,0.720430176867532,0.997778327
-1.23986870669639,-2.60738877360652,0.716530706124838,0.997778327
-0.580877309697078,-2.46688002967422,0.720092213634272,0.997778327
-1.08259901811888,-2.591778889396,0.716987837852243,0.997778327
-0.647478568028677,-2.48249095323135,0.719714010863959,0.997778327
-0.905051371353524,-2.57616678557017,0.717409421744457,0.997778327
-0.658862857557667,-2.49810210961614,0.719331422329894,0.997778327
-0.880023580241987,-2.56055534602927,0.717815670025583,0.997778327
-0.687284921705627,-2.51371777139628,0.71897068057198,0.997778327
-0.837561787117409,-2.54494451496951,0.718211398257387,0.997778327
-0.753286440997378,-2.52933328656326,0.71860130328481,0.997778327000001
0.465831168431832,-1.67070540632642,0.718247278120181,0.997778327
0.480679155966854,-1.65509464918143,0.717801256781739,0.997778327
0.534791228206152,-1.63948538524311,0.717327623382089,0.997778327
0.550836289217859,-1.62387401014342,0.716831968010403,0.997778327
0.547590688323713,-1.60826069567738,0.71633709963663,0.997778327
0.560029397211931,-1.59264695168155,0.715837525687288,0.997778327
0.55128274630863,-1.57703335317812,0.715335588076238,0.997778327
0.571287730540404,-1.56142051120961,0.714826941269447,0.997778327
0.603777400383246,-1.54580947944283,0.714301684066719,0.997778327
0.625395604866268,-1.53019923243108,0.713755397729148,0.997778327
0.631331339804573,-1.51454933710055,0.713192320589223,0.997778327
