"Pnx","X (m)","Y (m)","Z (m)"
0.0933197673375778,-1.29536897952436,0.110625,-0.00751838493021492
0.107311446022405,-1.27974666810405,0.110625,-0.00746404775160191
0.10844626103243,-1.26412657347697,0.110625,-0.00740640041472706
0.109055017757822,-1.24850867933934,0.110625,-0.00734980404301396
0.113138637457059,-1.23289388371354,0.110625,-0.00729345424360977
0.122449304098799,-1.21728787126128,0.110625,-0.00723474051201436
0.123480772280424,-1.20168818271613,0.110625,-0.00717443344176665
0.253347445415857,-1.18609159372682,0.110625,-0.00708415333973871
0.371335218447332,-1.17049987436286,0.110625,-0.00693556731902662
0.477775311783558,-1.15491001103339,0.110625,-0.00674480010934205
0.706336633267385,-1.13931783164882,0.110625,-0.00649178199412278
0.778682202612425,-1.1237216298372,0.110625,-0.00616962749765407
0.81321450157101,-1.10812261733072,0.110625,-0.00582090913600654
0.863566385029578,-1.09252080308064,0.110625,-0.00545801489098744
0.892072322742718,-1.07691590618962,0.110625,-0.00507966821889814
0.899998139286441,-1.06130929509025,0.110625,-0.0046945651369994
0.956852926114219,-1.04570205355027,0.110625,-0.00429864539424711
1.0370331341338,-1.03009448919337,0.110625,-0.00387859591766716
1.0712822714706,-1.01448743192447,0.110625,-0.00343977914511968
1.1071930191183,-0.998842656156957,0.110625,-0.00298705005525009
1.16779914909222,-0.983205442553175,0.110625,-0.00251701997822322
1.24836068532512,-0.967612575299773,0.110625,-0.00202698823368732
1.33067391137211,-0.952022542414614,0.110625,-0.00150873906843987
1.3365678429263,-0.936436569955017,0.110625,-0.000974164360400679
1.37175534682495,-0.920850868830229,0.110625,-0.000434453499805017
1.52539238788612,-0.905269812507436,0.110625,0.000135448161935952
1.6300767531547,-0.889694509013329,0.110625,0.000750518149804604
1.6325177163717,-0.874121216520023,0.110625,0.00138573388617262
1.76111729545504,-0.858557240817378,0.110625,0.00204335359817051
1.82241921207096,-0.837722289698625,0.110625,0.00297564003586046
1.84200506481373,-0.845526727625716,0.110625,0.00262251013303
1.94042947422494,-0.827325615019844,0.110625,0.00346177592775273
2.02935037061487,-0.811686013085766,0.110625,0.00422049441225996
2.07337487480478,-0.796097405938089,0.110625,0.00499965601340875
2.35802188384554,-0.780511587433937,0.110625,0.00583634490640618
2.36498527871651,-0.764928275456197,0.110625,0.00672797600360761
2.42029467608717,-0.749345797896187,0.110625,0.00763508221037365
2.66537874065973,-0.733767863316392,0.110625,0.00859533299526893
2.74267587727354,-0.718193923095706,0.110625,0.00961172798243722
2.82470507688372,-0.702621472539099,0.110625,0.010665803612155
2.98714272592015,-0.68705180087137,0.110625,0.0117679214373826
3.22899041955897,-0.67141421026296,0.110625,0.0129505902711504
3.22390290038254,-0.655826500892255,0.110625,0.0141861685765351
1.53256445188119,-0.108539751868853,0.110625,0.584302303433074
1.82450744683357,-0.107038773086801,0.110625,0.56923680975658
2.06640761860008,-0.107070184440204,0.110625,0.55398098212367
2.28853216711688,-0.107436494136105,0.110625,0.53864181809991
2.4760351763822,-0.108267042053722,0.110625,0.522514230291988
2.58334945195247,-0.109538018312799,0.110625,0.505601243095056
2.59817859805233,-0.113128423005549,0.110625,0.469170740176964
0.180155766462672,-0.101088187673724,0.110625,0.462716818484179
2.60107278891391,-0.11135818677965,0.110625,0.485921411118239
0.201863801776377,-0.0796482373301056,0.110625,0.461104854216036
0.298559053647343,-0.0631204646211519,0.110625,0.45952177197885
0.400565165635124,-0.0433832176676194,0.110625,0.456850887352176
0.400565165635124,-0.0483193763962242,0.110625,0.457576953437657
0.400565165635124,-0.0530261376884447,0.110625,0.458294688946726
0.635170915789431,-0.0371443438842119,0.110625,0.455645320526216
0.787609534437175,-0.0299879701341356,0.110625,0.453788246161581
0.924257214673297,-0.0230384901420358,0.110625,0.451598170043957
1.04806867932292,-0.01674888394378,0.110625,0.449309116819141
1.68869974373604,-0.0115425861282349,0.110625,0.446572522487612
2.90694414311623,-0.00818856755462898,0.110625,0.442905983566023
5.43040742721803,-0.0599749641507238,0.110625,0.368677570869548
1.92095772924743,-0.0581624940724663,0.110625,0.371148621817367
3.47557445733679,-0.00677210700200379,0.110625,0.438217945386523
5.62084276957434,-0.0604268437367532,0.110625,0.365320761423734
0.825939184510395,-0.055511057268472,0.110625,0.371810827369251
0.635874354887615,-0.0520489443160649,0.110625,0.372253672904184
0.63372686130125,-0.04806521066956,0.110625,0.37270628141194
3.62105992850197,-0.0060023138184084,0.110625,0.43212822579251
3.74654427842624,-0.00530651934800548,0.110625,0.424967080626733
5.62355393163484,-0.0601386599789895,0.110625,0.361817640585558
0.635868799013287,-0.0441702540688098,0.110625,0.373146748312806
3.87306395708922,-0.00467965661094104,0.110625,0.417466040248756
3.99933040931912,-0.00412375245828948,0.110625,0.409842214947277
5.62093554679111,-0.0597896852986334,0.110625,0.357631929446968
0.638681877237118,-0.0405066134555448,0.110625,0.373560950816155
4.15007760875405,-0.00363974509733275,0.110625,0.402183095023556
4.32822164043687,-0.00325982071939011,0.110625,0.394782921711611
0.667647430384657,-0.0178241132519975,0.110625,0.376126311875372
0.698116241212116,-0.0143487318048449,0.110625,0.376526101826914
5.60541350366594,-0.0594512075221817,0.110625,0.353571989338431
0.643526345782478,-0.0349746796948014,0.110625,0.374186283899881
0.658844738128329,-0.0215947415694086,0.110625,0.375699782029793
4.70128790511386,-0.00305114990697106,0.110625,0.388333465305806
0.813230742902924,-0.0115374559893882,0.110625,0.376877066056021
5.54869223600585,-0.0589174652859897,0.110625,0.34712886681769
0.651768950341198,-0.0273119433929995,0.110625,0.375052951978119
2.48117954893571,-0.00759317150940771,0.110625,0.377782725513468
5.21456068846017,-0.00327022004078562,0.110625,0.383643432368262
5.1407533947169,-0.00455569299737057,0.110625,0.380358889014991
1.21696494380267,-0.00937439637173063,0.110625,0.377231375737982
5.47375872468162,-0.0582495047201684,0.110625,0.339045189989302
3.51107428225521,-0.00617202226539079,0.110625,0.378519359689713
4.49996202269929,-0.0456110664854298,0.110625,0.194535478643979
5.39125933661392,-0.0576216091342659,0.110625,0.331441881357505
5.07577590159999,-0.0464317985314909,0.110625,0.197205300291739
1.81734032650776,-0.0428542839086955,0.110625,0.192600817453112
5.30952098670374,-0.0566533828345898,0.110625,0.319704040176556
5.1333815249945,-0.0468292022997723,0.110625,0.200886126952333
0.363703649027799,-0.0394575344261281,0.110625,0.191692050250115
0.294207888362463,-0.0361323876978498,0.110625,0.191482015237557
0.283693975305266,-0.0320928104404711,0.110625,0.191251053740551
5.2559386816956,-0.055356860111383,0.110625,0.303980524302114
0.281949470685205,-0.0282237586784966,0.110625,0.191032685929407
5.15422353978659,-0.0471717195080561,0.110625,0.20501248291863
5.26487693349744,-0.0540651928656759,0.110625,0.288308266943953
5.17613165823845,-0.0474947905155155,0.110625,0.208924767389672
0.280897586228662,-0.0244208817519648,0.110625,0.190818142468613
5.29423550388031,-0.0527850470288905,0.110625,0.272786402122402
0.280082163873656,-0.0207149696441782,0.110625,0.190609217539356
5.20786810638668,-0.0479481689608634,0.110625,0.214401992157289
5.33326518927689,-0.0515005625396279,0.110625,0.257265124130257
0.282413058655189,-0.0173256188870907,0.110625,0.190417932338769
5.25808676577684,-0.0485752306194686,0.110625,0.221980698198448
5.29000048874647,-0.0492286049194184,0.110625,0.229878503605664
5.33708493810455,-0.0502035031270291,0.110625,0.241633721781808
0.315854459082408,-0.0143823711409072,0.110625,0.190242019830594
0.758805767389429,-0.0118651124359859,0.110625,0.189989546921609
4.94664379570322,-0.00457327680314457,0.110625,0.185375763201783
2.18322210104603,-0.00889952418975834,0.110625,0.18904810252186
6.10044634324373,-0.00271905184838216,0.110625,0.181744433966152
5.50187313593949,-0.00343894504633332,0.110625,0.183537772444756
4.3426542623004,-0.00617232070982995,0.110625,0.187311747781991
6.36130316477772,-0.00234777052001012,0.110625,0.179796028831212
6.30158011459044,-0.00234325248405525,0.110625,0.177592218930623
6.19241647924323,-0.00259610009624905,0.110625,0.175128012615131
6.12492294989588,-0.00299293284989883,0.110625,0.172362689242743
6.06041883210068,-0.00355181012440317,0.110625,0.169175302414012
5.98589340977873,-0.00468510974268323,0.110625,0.163854767300425
1.54646930595439,-0.0789355153640692,0.110625,0.118529864533272
0.594010816405269,-0.0767324272075423,0.110625,0.119113196588745
0.432288253687914,-0.0747685541106792,0.110625,0.119351649077504
1.03321083474257,-0.0806923127052818,0.110625,0.11786957598729
0.569716599531301,-0.0779313074553952,0.110625,0.11893849609596
0.280513039853345,-0.0727954338862394,0.110625,0.119517492627299
0.971835787934033,-0.0708421317335383,0.110625,0.119756038883526
0.49771211991652,-0.0572421816676134,0.110625,0.122718167727203
1.03934331540242,-0.0587892708064456,0.110625,0.12258573714304
0.6103458068777,-0.0643612237880133,0.110625,0.121654926812828
0.83801817164172,-0.0630144837021021,0.110625,0.121748181604913
1.88140644606941,-0.0553317073735987,0.110625,0.122932095262016
1.54647273868664,-0.0358087358020396,0.110625,0.126078517426974
5.9351056280083,-0.00642736935989087,0.110625,0.156795340006297
1.41881798215473,-0.085254455936692,0.110625,0.116579186482261
0.847274313180081,-0.0842313516528849,0.110625,0.116906701204967
0.927888478533686,-0.0826334267802168,0.110625,0.117329522779366
1.64756586287648,-0.0936375711006335,0.110625,0.113000942116139
2.33668333267323,-0.0688962625688587,0.110625,0.12032494585554
1.73147690312338,-0.0669350799717748,0.110625,0.121023237316841
2.35826268960042,-0.0653540758767763,0.110625,0.121487656135676
5.74483142876724,-0.0597615775931558,0.110625,0.122258576321923
1.09983134414599,-0.0611068908886674,0.110625,0.121924197644739
2.628046760724,-0.0534143964298312,0.110625,0.123330284527625
1.97844852758627,-0.0514550053888675,0.110625,0.123800029913658
1.78023193302406,-0.0497299725086095,0.110625,0.124180694185745
1.31566002766137,-0.037828308600581,0.110625,0.12584579216207
1.40818358012663,-0.048760595344804,0.110625,0.12435507466467
4.07242576017467,-0.0475443279466413,0.110625,0.124459824996001
2.46595166144905,-0.0436535507040172,0.110625,0.125025658996338
3.68288601620197,-0.045584182793635,0.110625,0.124706314720602
1.74108745248231,-0.0365926243231633,0.110625,0.125988900975103
1.8831950201745,-0.0352543238710836,0.110625,0.126141657536567
6.06751803281327,-0.0084561983619636,0.110625,0.149891136678653
1.29759323394631,-0.0926402009221017,0.110625,0.113522712009137
1.17182001545889,-0.0906479950144434,0.110625,0.114509402523359
1.54425401990012,-0.0880852396969466,0.110625,0.115641858595046
1.25374296269082,-0.0866453965322201,0.110625,0.116095239421272
1.27961365312753,-0.094552299741961,0.110625,0.112434132308206
1.53704139468375,-0.0963819933028604,0.110625,0.111256636497811
2.47225297830492,-0.0417065207035424,0.110625,0.125360278074242
1.21161334730533,-0.0397562864809316,0.110625,0.125635931797432
2.39518887740975,-0.0344879572708747,0.110625,0.126218961023704
2.39518887740975,-0.0329092172791073,0.110625,0.126454219741684
4.08803313447013,-0.0305223774155147,0.110625,0.126993426292909
6.15212914653723,-0.0106878916951071,0.110625,0.143361377790769
1.8277435446046,-0.110343513079409,0.110625,0.101190483695024
1.8450019095856,-0.105812002405095,0.110625,0.10469659304667
1.16171327636635,-0.0890801975948455,0.110625,0.115247009033396
1.82148984965062,-0.102446346706864,0.110625,0.107271018250437
1.506902314054,-0.100154949050475,0.110625,0.109008736184627
1.1938702425685,-0.0986515370887945,0.110625,0.10984580002663
1.67503353939895,-0.104677122771758,0.110625,0.105518237461093
1.54229821256624,-0.10341715248056,0.110625,0.106468732801044
1.4478969579332,-0.0974776018955321,0.110625,0.110516014017142
6.0530705462691,-0.0276637320521842,0.110625,0.127885228605465
4.92081826111239,-0.015527797611151,0.110625,0.134715426636297
6.06243737829557,-0.0132783169161576,0.110625,0.137899539775391
2.04064246920878,-0.113863940027648,0.110625,0.0983592576570551
2.04064246920878,-0.115790180309415,0.110625,0.0969242685045248
2.04064246920878,-0.1147984090282,0.110625,0.0976066820162538
1.82848817940596,-0.112235785051598,0.110625,0.0997089112202241
1.67710120815338,-0.106521093431368,0.110625,0.104121367448574
1.67710120815338,-0.107426150134549,0.110625,0.103260535898818
1.67710120815338,-0.109180708002285,0.110625,0.102080592475141
1.67710120815338,-0.108349118487031,0.110625,0.102576920948612
1.36339461883702,-0.100649725162025,0.110625,0.108702680224715
1.36339461883702,-0.10093607938049,0.110625,0.108434187099554
1.36339461883702,-0.101484542571671,0.110625,0.10801634465415
5.57428830708416,-0.0239512870519335,0.110625,0.129509344964232
5.57428830708416,-0.0259265632597182,0.110625,0.128588134724326
4.5477165394444,-0.0218905589334691,0.110625,0.130497870637692
5.19418632964386,-0.0188584725808109,0.110625,0.132340275684094
2.02893924028502,-0.116807685368966,0.110625,0.0961806656620558
2.50522661651764,-0.121084637692536,0.110625,0.0928347744240275
2.50522661651764,-0.121179473386748,0.110625,0.0927500405127636
2.50522661651764,-0.121412057349532,0.110625,0.0925884910516611
2.50522661651764,-0.121261189135488,0.110625,0.0926907619742236
2.22714726472017,-0.117742511463762,0.110625,0.0954438104047833
2.22714726472017,-0.118661853979449,0.110625,0.0946882523593247
2.22714726472017,-0.119993957374791,0.110625,0.0936524938958415
2.62892557152739,-0.125739969440319,0.110625,0.0892997434409188
2.42130731398364,-0.123260628829718,0.110625,0.0911742762956403
2.67196786867986,-0.132354640228432,0.110625,0.0844880527003968
2.61191878210407,-0.130375125383919,0.110625,0.0859135033093743
2.54207514022904,-0.127645805214624,0.110625,0.0879010078347479
2.79471323175932,-0.136957715395646,0.110625,0.0812515376876104
2.73754802708036,-0.134748035486255,0.110625,0.0828032363422275
2.8294242605311,-0.141611720094673,0.110625,0.0781055984143886
2.89352553589146,-0.143675280547139,0.110625,0.0767295085931333
2.80063723058643,-0.138931978830629,0.110625,0.0799120320911735
2.90194242701617,-0.146217196778451,0.110625,0.075053180584201
3.06991441325713,-0.152927270102303,0.110625,0.0707210513472573
3.05777190211332,-0.150679234245944,0.110625,0.0721617275310825
2.86008406445841,-0.156840886009423,0.110625,0.0683979686681045
3.27645237555729,-0.15471868696265,0.110625,0.0696128324482308
2.9951663303039,-0.148212214160337,0.110625,0.0737492863004475
2.36054036603834,-0.158595886648143,0.110625,0.0677254427889799
1.15199520038764,-0.161507151233746,0.110625,0.0671545910353936
0.163174818835894,-0.168497774973565,0.110625,0.0669640264433481
0.163174818835894,-0.164660930922944,0.110625,0.0670121735563645
0.477011064751512,-0.174947342872067,0.110625,0.0666120046809413
0.664780616789515,-0.206293603817715,0.110625,0.0639956786224298
0.502165842355874,-0.19066232807541,0.110625,0.0655372816657036
0.534306282166462,-0.182823259546341,0.110625,0.0661120003825622
0.928743344016994,-0.261707431424906,0.110625,0.0587164362026019
0.770799951231764,-0.258924841902278,0.110625,0.0590554112713993
0.482893582719134,-0.254845935482014,0.110625,0.0593860834125539
0.576331880725246,-0.214063193501481,0.110625,0.0631981067650982
0.673336641563356,-0.198463116787303,0.110625,0.0648354615223291
1.55793599218688,-0.26372259671228,0.110625,0.0584279867265609
0.652053336777044,-0.25086606851975,0.110625,0.0596511957075928
0.747248910580674,-0.237444412361387,0.110625,0.0608755971038935
0.614794647154243,-0.217965075146898,0.110625,0.0628285354414506
0.703126386025109,-0.229728848499696,0.110625,0.0616408610534431
0.892704171727411,-0.275622471262853,0.110625,0.0570346104362544
1.01468617026826,-0.279734370353319,0.110625,0.056588568162582
1.20654344859322,-0.270806623553489,0.110625,0.0575918850512062
0.883027056711713,-0.266963170605354,0.110625,0.058026934120512
0.534454788108888,-0.24509060071679,0.110625,0.0601606382162803
0.758874468994074,-0.221930356008503,0.110625,0.0624281778906838
0.885332697461972,-0.28034146021741,0.110625,0.0565263041431072
0.829465558718593,-0.277907523265787,0.110625,0.056785175541483
1.02116430546121,-0.273743709491458,0.110625,0.0572509816175339
0.887249572323628,-0.2823144331791,0.110625,0.056336852741662
0.897212850662951,-0.290161397852297,0.110625,0.0555400448283904
0.92532009860849,-0.286008740400943,0.110625,0.0559659194998118
0.977877158917989,-0.293828972328999,0.110625,0.055165654493038
0.946374388369839,-0.28799352268468,0.110625,0.0557585367814915
0.946374388369839,-0.288235191745147,0.110625,0.0557338119483366
0.96713467311363,-0.297762209291784,0.110625,0.0547577990114018
0.928054962833293,-0.301712404768626,0.110625,0.0543539666148093
1.16473003060813,-0.309553107855699,0.110625,0.0534982002743448
1.04881568936524,-0.30564264124182,0.110625,0.0539401314097003
1.28009440165197,-0.313427855587638,0.110625,0.0530425407958747
1.27516319103871,-0.330845136127659,0.110625,0.0509909754764402
1.30965697837497,-0.329243675359036,0.110625,0.0511751450153305
1.50693325703003,-0.325108505950757,0.110625,0.0516517195711246
1.31910427891153,-0.317335952063891,0.110625,0.0525762565467906
1.37303735106608,-0.33680397818464,0.110625,0.050222604615454
1.51152754896003,-0.332876028607286,0.110625,0.0507185272254475
1.46139405535861,-0.327373971878611,0.110625,0.0513899976581671
1.41397871434039,-0.321242793015101,0.110625,0.052108085407524
1.59704037504319,-0.340685536705015,0.110625,0.0497505862047886
2.30167958247801,-0.352283804775724,0.110625,0.0482631717734391
1.64659635155386,-0.344570715345116,0.110625,0.049267445502332
1.84150248430726,-0.357446875158193,0.110625,0.0475980798746461
1.84150248430726,-0.356842952868283,0.110625,0.0476265486063235
1.84150248430726,-0.355315039440439,0.110625,0.0478499830579094
1.83326149631058,-0.358604217333147,0.110625,0.0475312381048058
1.79926886283081,-0.348473124396685,0.110625,0.0487780851923455
6.16109192911322,-0.491655800588943,0.110625,0.0318886605707376
6.16109192911322,-0.492877868467174,0.110625,0.0317170029488602
5.27338462430015,-0.49419041653408,0.110625,0.0315328589013961
3.50799002912611,-0.640368805564929,0.110625,0.0154761378199544
1.77311218082411,-0.360670863793838,0.110625,0.0472684906073216
2.34670717804387,-0.381871950565625,0.110625,0.0442563678518383
3.71440330780922,-0.382987681270153,0.110625,0.0440726905794528
-4.98531656729236,-0.394096454615788,0.110625,0.0478277241333127
9.99534210034565,-0.394897315338189,0.110625,0.0476222231169968
-4.96673662279718,-0.393039551562078,0.110625,0.0476037113024615
-4.96673662279718,-0.39349107190726,0.110625,0.0476994119917121
5.53874980667111,-0.432459011645366,0.110625,0.041189981721267
7.45125625292269,-0.490067342221465,0.110625,0.0321144188784695
4.46088970224973,-0.497100653551482,0.110625,0.0311276089826483
3.5158923451533,-0.624924344055863,0.110625,0.0168279287267563
2.63851090924723,-0.380503939519715,0.110625,0.0444563112693498
2.63851090924723,-0.379354107327592,0.110625,0.0447029695630288
2.63851090924723,-0.37824517631372,0.110625,0.044939527836939
2.63851090924723,-0.377446367243824,0.110625,0.0450578574358698
1.85474172430554,-0.377377332939335,0.110625,0.0450660759291851
1.83790040301549,-0.362861793791807,0.110625,0.046990843940886
4.16692710537049,-0.384410698808375,0.110625,0.043779835213489
9.97525505667738,-0.394564588851924,0.110625,0.0477450745132854
11.0810898567835,-0.394970027978895,0.110625,0.0475929359505217
2.91417088540335,-0.388732837643319,0.110625,0.0431656241546657
4.20955389318707,-0.396092404295915,0.110625,0.0470101913440005
11.1026076055079,-0.396094540187932,0.110625,0.0471258957049967
4.20473545658523,-0.395492736572588,0.110625,0.0468987953938367
11.0777852035314,-0.395462829697294,0.110625,0.0473882621073152
