"Pnx","X (m)","Y (m)","Z (m)"
4.26343178460589,-0.56888995816872,0.572659893490943,1.00243125
4.29034430613813,-0.563706423378628,0.564038452137493,1.00243125
4.3449855773314,-0.558100340697322,0.554532606671001,1.00243125
4.380072972885,-0.550882206607807,0.542162996146699,1.00243125
4.42631411793149,-0.546174142010062,0.533984734178258,1.00243125
4.45194228467141,-0.540209424985391,0.523374501739913,1.00243125
4.46573820997801,-0.534228396744186,0.51263952487329,1.00243125
4.51510680877246,-0.529952584876932,0.504852459878796,1.00243125
4.55213427847834,-0.523350071423949,0.492600332648319,1.00243125
4.59388652144156,-0.518042490975857,0.482610972642564,1.00243125
4.62642477221763,-0.514068024744029,0.474928080476797,1.00243125
4.66746391499089,-0.50738281391075,0.46170138025088,1.00243125
4.69602145110116,-0.502442604649769,0.451735873712904,1.00243125
4.7307969820438,-0.49869365296264,0.444019283302912,1.00243125
4.76008244974647,-0.49227264163261,0.43067506819498,1.00243125
4.79891565151192,-0.487283866022086,0.420120338819367,1.00243125
4.83625835958773,-0.483723462844651,0.412303539389747,1.00243125
4.86193080680376,-0.478130434769116,0.399793407656145,1.00243125
4.89263674713356,-0.47259155650173,0.387089824790641,1.00243125
4.93489360688598,-0.469166482546697,0.379047570210431,1.00243125
4.96401983950714,-0.464835001900297,0.368670779335146,1.00243125
5.00515866758529,-0.458555064836346,0.353318177618553,1.00243125
5.05028519472979,-0.455280017966958,0.345171044295541,1.00243125
5.08180934467084,-0.452313482505704,0.337470239994862,1.00243125
5.10719061974825,-0.446732381634233,0.322504483272217,1.00243125
5.12340097344186,-0.442016252708136,0.30930905737087,1.00243125
5.14836345113981,-0.43919215380368,0.301273306707633,1.00243125
5.17347951643491,-0.435945053193792,0.291341243885333,1.00243125
5.1764933605344,-0.431131166588299,0.276167987568133,1.00243125
5.18350495861642,-0.426900308210093,0.262635187220944,1.00243125
5.24053635957442,-0.42441791662168,0.254556054872379,1.00243125
5.24153285808452,-0.421563221287605,0.244812788897567,1.00243125
5.23850353510808,-0.417290439689562,0.229682197474619,1.00243125
5.24499250859404,-0.413385073276,0.214298904245786,1.00243125
5.25206907877678,-0.408823658725332,0.194582771241678,1.00243125
5.22871633632669,-0.41063620740794,0.20246954068009,1.00243125
5.2654445511069,-0.406278084894991,0.183185297863602,1.00243125
5.27088432489789,-0.403147404450613,0.168047455081441,1.00243125
5.26337261592034,-0.400219365633581,0.152733926879546,1.00243125
5.2646848464841,-0.397531737933563,0.13720783270858,1.00243125
5.2481001713869,-0.395114024108865,0.121738030090465,1.00243125
5.27614256149864,-0.392700580607816,0.104963914801248,1.00243125
5.21875233178595,-0.393733511633933,0.112736884559735,1.00243125
5.26370517380589,-0.391082094770891,0.090796885596143,1.00243125
5.24264789552337,-0.389579012047261,0.0754082969454603,1.00243125
5.27128585354345,-0.388163847767122,0.0600275809807238,1.00243125
5.2566327053659,-0.387166460701565,0.0446493509605104,1.00243125
5.31214857246757,-0.385826856531063,0.00307698872110385,1.00243125
5.2551183064743,-0.386144673555408,0.0138640175748522,1.00243125
5.27815862834063,-0.38661131512647,0.0292590755832551,1.00243125
-2.84125719414667,-3.07714403061998,0.553299262357697,1.00243125
-2.30174107270035,-3.08012653366195,0.543164222152356,1.00243125
-1.58727727121101,-3.08450285300909,0.527689663815399,1.00243125
-0.942550491148676,-3.08801320346583,0.514644769011424,1.00243125
-1.48406013667288,-3.09007888440382,0.506765607459664,1.00243125
-1.03570797523489,-3.09133768250894,0.501959247642656,1.00243125
0.458669321792087,-3.09332824305953,0.494312990980595,1.00243125
0.87763480907009,-3.09641720145827,0.481070007537772,1.00243125
1.44348981754671,-3.09970021000406,0.465507904877578,1.00243125
1.85447439240775,-3.10202580433436,0.454269696882395,1.00243125
1.41965112522602,-3.10364278975945,0.446376182591622,1.00243125
1.87543088014651,-3.10600214585991,0.434518760929664,1.00243125
3.47462433320901,-3.10751407120509,0.426801177100504,1.00243125
3.74031305574086,-3.10902775090791,0.418735386190525,1.00243125
4.01612821320066,-3.11192121079602,0.403293604551875,1.00243125
4.39653946918381,-3.1147858068135,0.387729732367072,1.00243125
4.77470690108251,-3.11744598022215,0.372114857140283,1.00243125
4.98666179822556,-3.11936335139073,0.360120887580423,1.00243125
4.35602114514531,-3.12062006695137,0.352259598943797,1.00243125
4.54126804418639,-3.12212383450158,0.342852895370773,1.00243125
6.14976528325113,-3.12335892471537,0.335113313699551,1.00243125
6.25517218541012,-3.12487213985614,0.32539421870733,1.00243125
6.43088928543414,-3.12712628308585,0.309900026103007,1.00243125
6.52946200434421,-3.12920884052242,0.294373523511804,1.00243125
6.66541568166701,-3.13130931807559,0.278771726264069,1.00243125
6.77846082675141,-3.13342143407346,0.263155242338386,1.00243125
6.6693860645985,-3.13499575485972,0.251419348181841,1.00243125
6.13879989153687,-3.13604894278958,0.243568979933244,1.00243125
6.30423339344211,-3.13723545215698,0.231921190166099,1.00243125
6.53413404376093,-3.13827380004143,0.219532630052368,1.00243125
8.13050516778293,-3.13889097380254,0.211758787503905,1.00243125
8.14745865817791,-3.13975511445351,0.200851045908419,1.00243125
8.23802724388005,-3.14098724785161,0.185303642366343,1.00243125
8.32655621362471,-3.14218889293742,0.169749956781095,1.00243125
8.31875652216872,-3.14327516295021,0.154188952833091,1.00243125
8.27030680864008,-3.14427315602948,0.138624547242112,1.00243125
8.22469099512452,-3.14524916819628,0.123058698427528,1.00243125
8.21532341546638,-3.14604229683189,0.107477745445213,1.00243125
8.18061493219069,-3.14661413601765,0.0918949018265868,1.00243125
8.2077673558093,-3.14715000965808,0.0763114521426359,1.00243125
8.18546938331838,-3.14765637054365,0.0607274847027598,1.00243125
8.36769674773379,-3.14840092489639,0.00311421606526842,1.00243125
8.21085054607342,-3.14798171029279,0.0451562358110269,1.00243125
8.38689875250442,-3.14829858858388,0.0140139723203575,1.00243125
8.3370915745148,-3.14815239385157,0.0295850526999989,1.00243125
-4.24137496384064,-3.07485559290157,0.560907384917352,1.00243125
-4.71932370431584,-3.06982056676777,0.576479905659304,1.00243125
-4.93246026710795,-3.07250073933341,0.568440087530681,1.00243125
-5.3446379194674,-3.06535259794801,0.589694747819509,1.00243125
-5.89366909219218,-3.06183567983683,0.599778164425608,1.00243125
-7.17338461326671,-3.05903595658483,0.607300301127839,1.00243125
-46.092267864559,-3.05352142173274,0.698152275620611,1.00243125
-49.5401928632576,-3.05561361724719,0.697218872324498,1.00243125
-64.4517036026016,-3.05888491246164,0.695227293690833,1.00243125
-6.84797541995586,-3.05251349311455,0.623759586909774,1.00243125
-7.51332534193251,-3.05576122279006,0.615749416550853,1.00243125
-36.5748554937348,-3.05153590529249,0.698851235068839,1.00243125
-39.9756560711797,-3.04903946460282,0.699703628454092,1.00243125
-30.5875730932977,-3.06067979326778,0.665160774777161,1.00243125
-63.0474521815408,-3.05757723065685,0.696285794221054,1.00243125
-63.2958157166192,-3.06087648439546,0.69305037679026,1.00243125
-5.40098615165234,-3.04715272144867,0.636463038291278,1.00243125
-6.55918223591656,-3.04832365053778,0.63376605005367,1.00243125
-6.55918223591656,-3.05004248865256,0.629787704117303,1.00243125
-27.2410423964434,-3.0449792799713,0.700916787090766,1.00243125
-22.8033043563453,-3.03813538096456,0.702753146543375,1.00243125
-0.803864733732201,-3.05837721154451,0.664395792524999,1.00243125
-0.195501615904155,-3.05671003136103,0.664227788188585,1.00243125
-48.9663414975236,-3.06229190712223,0.666200196868961,1.00243125
-53.6988486584423,-3.06293379267059,0.667258106840896,1.00243125
-58.3966923270684,-3.06181659670926,0.691568176563427,1.00243125
-5.26670002823982,-3.04524280633245,0.640657669259822,1.00243125
-58.8795309256125,-3.0624303835591,0.690198138274529,1.00243125
-21.4921259893315,-3.03137683456621,0.704396451597671,1.00243125
0.0338713088453454,-3.05423362844728,0.664000894551358,1.00243125
-49.1032645511889,-3.06304765220348,0.669023759350541,1.00243125
-3.69052324547591,-3.04266467120831,0.646207453372754,1.00243125
-57.1079826498513,-3.06348050662289,0.687631047234175,1.00243125
-16.3952015060895,-3.02756172549885,0.705270877509631,1.00243125
-16.6276595852877,-3.02311673380689,0.706184770173767,1.00243125
0.110305323942836,-3.05132320996585,0.663749635138988,1.00243125
0.110305323942836,-3.04636894019984,0.663373299190241,1.00243125
0.110305323942836,-3.04893811489764,0.663563316107002,1.00243125
-38.5074329371148,-3.0627162096434,0.670266341005663,1.00243125
-76.3023313278443,-3.06449382888436,0.683240948805782,1.00243125
-2.56289520480701,-3.04034180766863,0.650888562413133,1.00243125
-3.60254146255746,-3.04180190713861,0.647966330267008,1.00243125
-62.7937248289874,-3.06429240865241,0.684803827562098,1.00243125
-14.7817732830453,-3.01554510624237,0.707661255986154,1.00243125
-13.2183699909926,-3.00796605476294,0.708978353255414,1.00243125
0.102379195885085,-3.04110917373279,0.66298286231411,1.00243125
-28.4635696814845,-3.06044887740862,0.67369944707784,1.00243125
-18.1607130483899,-3.05056634485205,0.677936677184224,1.00243125
-26.0169527202157,-3.05057815415568,0.677341192587096,1.00243125
-36.5050648124431,-3.06185432791314,0.671782637223534,1.00243125
-29.2982377003511,-3.06391747941973,0.682803386170492,1.00243125
-16.5227631999701,-3.05219094301704,0.678543667852608,1.00243125
0.114779471231867,-3.03572736242468,0.662586746290819,1.00243125
-0.847894557123154,-3.03768158516024,0.656077720472984,1.00243125
-11.387026177686,-3.00033491311019,0.710154745145178,1.00243125
-10.2642500579078,-2.99277363695153,0.711215080241171,1.00243125
-14.9855492633131,-3.05825977718293,0.674797848800217,1.00243125
-23.7320295364711,-3.05973414864033,0.674310203302128,1.00243125
-13.8646692776,-3.05119628930071,0.678184354377406,1.00243125
-15.1230428305226,-3.0521271788782,0.676532090741765,1.00243125
-18.098955144367,-3.05665488139,0.675341686084761,1.00243125
-23.6469672412148,-3.06310118702996,0.682394055129145,1.00243125
-16.1586958671278,-3.05997245183978,0.680884774221639,1.00243125
-13.2664874470091,-3.05507993219025,0.679435607118739,1.00243125
0.32891043208316,-3.03458085726293,0.661940979184869,1.00243125
-0.399721509857194,-3.03560938568062,0.660002985832558,1.00243125
-8.83013528824077,-2.98628141428271,0.712044526983869,1.00243125
-9.12328321100633,-3.0547678124864,0.675767851421161,1.00243125
-21.8512080759336,-3.06159224371233,0.681637099597738,1.00243125
-13.4711110235667,-3.05829727532474,0.680362631135432,1.00243125
-6.77340899422194,-2.9825048494526,0.712477487211541,1.00243125
-6.22600414725987,-2.98004315670113,0.712748292431735,1.00243125
-7.2153673608313,-2.97615968078474,0.713169602420221,1.00243125
-6.74379898332304,-2.96989435697633,0.713806345255925,1.00243125
-4.77160203387774,-2.96210784126496,0.714505269362458,1.00243125
-5.91057645526909,-2.96580711566466,0.714200349274313,1.00243125
-3.18476644637092,-2.94957287507185,0.715418568324982,1.00243125
-1.94991140731803,-2.94604143849261,0.715547048744733,1.00243125
-4.05684117516591,-2.95506266451184,0.715058578009973,1.00243125
0.914041300381736,-2.94270302534002,0.715475174169508,1.00243125
6.46156782101717,-2.94098623505939,0.715354535225036,1.00243125
11.4852372467394,-2.93925997341747,0.715056686383461,1.00243125
12.0324171268224,-2.92872774911826,0.713353125494526,1.00243125
12.8666186563814,-2.92659910277912,0.713055178451133,1.00243125
3.0574713463006,-2.92303805000864,0.71289336079846,1.00243125
2.6971991553791,-2.93178752352155,0.713731818451753,1.00243125
11.2335671161816,-2.93568125121768,0.71437692907074,1.00243125
1.08958997527457,-2.9186813042043,0.71289508257827,1.00243125
-1.3709142639757,-2.91450486498549,0.712937858982915,1.00243125
-2.66281655405693,-2.92966558785632,0.713481900170678,1.00243125
-2.58452658410285,-2.9103956020629,0.713058925146427,1.00243125
-2.96037629772296,-2.90635993596394,0.713229589727654,1.00243125
-2.99316757147952,-2.90235004470765,0.713417091190763,1.00243125
-3.00052627778448,-2.89834070353906,0.713604952152303,1.00243125
-2.88140633270945,-2.89599316076588,0.71371392335779,1.00243125
-2.88140633270945,-2.89025821355883,0.71398344099119,1.00243125
-2.88140633270945,-2.89384863718778,0.713814307677981,1.00243125
-2.81922026727772,-2.88453903377731,0.714247287856366,1.00243125
-2.87019709185399,-2.87671994778795,0.714606326235408,1.00243125
-2.7270156122401,-2.8689066710893,0.714960343053035,1.00243125
-2.806087315772,-2.86109781348065,0.715307635147617,1.00243125
-2.7574673610303,-2.85328845534448,0.715653657485456,1.00243125
-2.79265748128044,-2.84552859851468,0.715996179171678,1.00243125
-2.93105100462031,-2.82886997448593,0.716723080631376,1.00243125
-2.84243003692484,-2.83774459830613,0.716337255199227,1.00243125
-2.99187187296654,-2.82530728393426,0.716877198675454,1.00243125
-2.94666051699635,-2.82342979116007,0.716957320625363,1.00243125
-2.86660776120313,-2.83256147872463,0.716562782514383,1.00243125
-2.31061377235333,-2.82091877868391,0.717050374307639,1.00243125
25.1781283917363,-2.8137017060566,0.716388487659814,1.00243125
7.30737245212602,-2.81739362056929,0.717019977221965,1.00243125
11.7981730911193,-2.8097714061845,0.715398678763706,1.00243125
-4.67500404773827,-2.80083592340886,0.714127114953204,1.00243125
7.42153364844176,-2.80559702192996,0.714427445219383,1.00243125
-5.00934699328452,-2.80305310375862,0.713938002313704,1.00243125
-4.59925100766857,-2.79876684768771,0.71430140323198,1.00243125
-4.58365287661571,-2.79671207383715,0.714455578054408,1.00243125
-4.00057694026971,-2.79249817132534,0.714744928561918,1.00243125
-4.04776089898761,-2.78899377178481,0.714966171859714,1.00243125
-0.0259200617011048,-2.13902721261605,0.722395874074456,1.00243125
3.63864364887773,-2.78514413079655,0.714935328862351,1.00243125
-0.0690001257744378,-2.1546426941898,0.722360016946581,1.00243125
28.0834199450434,-2.78110325226904,0.714314539377279,1.00243125
-0.0948837674989133,-2.17025290563423,0.722299208842136,1.00243125
44.4842423938031,-2.77864687450317,0.712864714378301,1.00243125
41.2736863708719,-2.77937167231902,0.713453047446347,1.00243125
-0.118421270386608,-2.18586045541346,0.722218981916024,1.00243125
41.8136737724428,-2.77784063137761,0.712213186259342,1.00243125
-0.128787146576904,-2.20147262481576,0.722126643202648,1.00243125
40.9435890175508,-2.77701807611203,0.711557513381766,1.00243125
24.1544345220547,-2.77384655334889,0.710126388739532,1.00243125
20.4215832990422,-2.77032301980022,0.709281878906615,1.00243125
-0.141349223652965,-2.21708183555749,0.722027928270547,1.00243125
24.8723012523427,-2.77552372401242,0.710817129193162,1.00243125
11.5946674059505,-2.77205571435795,0.709679572560021,1.00243125
-2.32581166888928,-2.76908076406304,0.709161004221976,1.00243125
-0.183823719108338,-2.23269614790385,0.721908883883521,1.00243125
-2.25301225777253,-2.76740755962211,0.709228896357907,1.00243125
-0.165890500956069,-2.24831004391004,0.721782079451122,1.00243125
-2.13708364134964,-2.7653056754412,0.709313918176127,1.00243125
-0.178249010004276,-2.26391830911079,0.721659849743225,1.00243125
-2.0678351730886,-2.76343858668227,0.709389437690417,1.00243125
-2.0678351730886,-2.76210833856973,0.70944321755934,1.00243125
-2.0678351730886,-2.76066368187871,0.709501781383147,1.00243125
-0.194719625389911,-2.27952997871347,0.721527893074444,1.00243125
-1.96197699694012,-2.75793679934571,0.709611401603071,1.00243125
-0.293898328769325,-2.2951358749456,0.72135434121853,1.00243125
-1.82697976996577,-2.75195098070361,0.709846633607706,1.00243125
-1.83675999399239,-2.74445983106563,0.710138220369297,1.00243125
-0.294732221091613,-2.31074055881718,0.721143758550091,1.00243125
-1.78853261169603,-2.74051432076022,0.710291553391011,1.00243125
-1.81132005886207,-2.73417742288384,0.710528636155178,1.00243125
-1.81132005886207,-2.72598684316673,0.710840524163242,1.00243125
-1.81132005886207,-2.72891073665016,0.710725649722571,1.00243125
-0.336009373606154,-2.32636207028749,0.720918838384618,1.00243125
-1.79449660572471,-2.73902249903246,0.710349073021514,1.00243125
-1.82794358822827,-2.7214183259604,0.711017104820277,1.00243125
-0.287481599153738,-2.34198492346785,0.720696603263246,1.00243125
-1.67890712340909,-2.71359980097196,0.711305795059552,1.00243125
-0.362966175223065,-2.35759697931329,0.720462689115993,1.00243125
-1.62762633533539,-2.70104474472457,0.711750823940459,1.00243125
-0.36221819932509,-2.37320887479161,0.720201287725189,1.00243125
-1.62267706241182,-2.68541483229766,0.712302785617227,1.00243125
-0.343839198109216,-2.38882090085333,0.719950522023676,1.00243125
-1.56055056269675,-2.66980874884937,0.712851098653118,1.00243125
-0.35561868817251,-2.40443302990438,0.719707655350821,1.00243125
-1.44754816637185,-2.65420411881363,0.71337997222902,1.00243125
-0.433690208055569,-2.42004470915946,0.719436956750611,1.00243125
-1.40809373786417,-2.63859961432474,0.713896182747151,1.00243125
-0.475380875493411,-2.43565568022439,0.719130958337887,1.00243125
-1.26841288641262,-2.6229963158078,0.714396502649065,1.00243125
-0.502782750324162,-2.45126614516061,0.718812096268848,1.00243125
-1.23986870669639,-2.60739247932195,0.714882940981617,1.00243125
-0.580877309697078,-2.46687669303974,0.718470965205227,1.00243125
-1.08259901811888,-2.59178578114603,0.715348208635668,1.00243125
-0.647478568028677,-2.48248772616468,0.718096686733777,1.00243125
-0.905051371353524,-2.57617465877954,0.715768170864161,1.00243125
-0.658862857557667,-2.49809912915965,0.71771513669166,1.00243125
-0.880023580241987,-2.56056569523863,0.716168637666091,1.00243125
-0.687284921705627,-2.51372428328438,0.717343654695921,1.00243125
-0.837561787117409,-2.54495790618895,0.716571716226652,1.00243125
-0.753286440997378,-2.52934811743312,0.716966616286682,1.00243125
0.465831168431832,-1.67069264732515,0.71679309667953,1.00243125
0.480679155966854,-1.65507304661452,0.716345002198773,1.00243125
0.534791228206152,-1.63946611249999,0.715873441183825,1.00243125
0.550836289217859,-1.62385899443885,0.715376942286521,1.00243125
0.547590688323713,-1.60825073389774,0.714878963404859,1.00243125
0.560029397211931,-1.59264061001221,0.714378678628036,1.00243125
0.55128274630863,-1.57703072844498,0.713878459995101,1.00243125
0.571287730540404,-1.5614215413925,0.71337506282512,1.00243125
0.603777400383246,-1.54581497981406,0.712852438196003,1.00243125
0.625395604866268,-1.53021043814082,0.712307639346898,1.00243125
0.631331339804573,-1.51457948649873,0.71174879136082,1.00243125
0.635351210068419,-1.49895422628905,0.711184715304612,1.00243125
0.69932120994051,-1.47071379056589,0.710116273363269,1.00243125
0.670654007355052,-1.48336346788427,0.710605569802949,1.00243125
0.686191287662564,-1.46289076481732,0.709807020914607,1.00243125
0.694532132135621,-1.45212415403386,0.709381599724759,1.00243125
0.698763142150826,-1.43652596650365,0.708758698123329,1.00243125
0.727051012367643,-1.4209278363267,0.708120587765992,1.00243125
0.749781573375892,-1.40533058803698,0.707457739735737,1.00243125
0.744449351821719,-1.38973353020416,0.706781477714082,1.00243125
0.753795510344952,-1.37413539383213,0.706100103393545,1.00243125
0.792470709416621,-1.35848999759968,0.705392072934238,1.00243125
0.742259742391107,-1.34283641295639,0.704676617204744,1.00243125
14.2083063319244,-1.1768146226606,0.700823429887615,1.00243125
0.723951081723666,-1.32722166064389,0.703986602892996,1.00243125
17.0657525168477,-1.17467601879963,0.699601828359364,1.00243125
11.3871039549562,-1.17226133213069,0.698321123280269,1.00243125
9.32867636004409,-1.17946040475569,0.701870983814129,1.00243125
6.26003595023159,-1.18215567035891,0.702489799419935,1.00243125
0.743656883177442,-1.31160817487805,0.70329780485577,1.00243125
3.30930369079867,-1.16758575218334,0.697183221449343,1.00243125
