"Pnx","X (m)","Y (m)","Z (m)"
-1.08304891525813,-2.01356007816739,0.45725,1.33053410886737
-0.888049562846754,-1.99799741847909,0.45725,1.33102108786842
-0.755888766589007,-1.98243498612741,0.45725,1.33143449898111
-0.640433173041777,-1.96686948407039,0.45725,1.33179329049963
-0.57328917065913,-1.95129798570106,0.45725,1.33211141651156
-0.390216319553763,-1.93572132954932,0.45725,1.33236707219166
-0.326546846597893,-1.92014201985003,0.45725,1.33256020150661
-0.211966408628561,-1.90456550965098,0.45725,1.33270717514371
-0.166636899831654,-1.88899117852443,0.45725,1.33281154817884
-0.0574509856805224,-1.87341522247904,0.45725,1.33287478143896
0.0833745413769351,-1.85783967756511,0.45725,1.33286723269023
0.126544040690732,-1.84226369076038,0.45725,1.33280588241391
0.230204670641631,-1.8266850641844,0.45725,1.33269955251127
0.264655761725553,-1.81110501501892,0.45725,1.33254999435093
0.340637005982782,-1.7955224862134,0.45725,1.33236432024563
0.435027502688301,-1.77993744884979,0.45725,1.33212203642867
0.478670232771744,-1.76435277668544,0.45725,1.33183110433298
0.525295698283027,-1.74876852718609,0.45725,1.33150544988104
0.583531862304261,-1.73318218787273,0.45725,1.33113900752294
0.627554397618248,-1.71759423104409,0.45725,1.33073076580923
0.66332265735018,-1.70200542557094,0.45725,1.33028714490264
0.713380937587928,-1.68641648192845,0.45725,1.3298045763545
0.735297263596571,-1.67082734025439,0.45725,1.32928693172919
0.800899514672831,-1.65523617048732,0.45725,1.32872698780052
0.807109466216156,-1.63964449659917,0.45725,1.32812911389337
0.827284783300032,-1.62405433337746,0.45725,1.32751013883348
0.8786288674902,-1.60846461293802,0.45725,1.32685186188036
0.90839300693744,-1.59287284209862,0.45725,1.32614768471632
0.933326676698646,-1.5772790664004,0.45725,1.32540585094301
0.937921085244873,-1.55554209130157,0.45725,1.32432853530874
0.937921085244873,-1.5590311534788,0.45725,1.32450383167103
0.937921085244873,-1.56512498746306,0.45725,1.32480870173948
0.958099226417488,-1.54601359486101,0.45725,1.32383369592948
0.965933931156679,-1.53045748143582,0.45725,1.3230058559963
0.98590175734979,-1.51489799758978,0.45725,1.32214661057519
0.982876072248691,-1.5029545971432,0.45725,1.32147071394604
0.983280162238676,-1.4951536798888,0.45725,1.32102456086959
1.01921265206373,-1.48373125256223,0.45725,1.32034524545812
1.00580135841766,-1.46815958612249,0.45725,1.31940031001287
1.00396383810617,-1.45253331680841,0.45725,1.31844141301388
1.04231540800037,-1.4368993217593,0.45725,1.31745036996662
1.04939427277196,-1.42129869645127,0.45725,1.31642252472767
1.05232931007419,-1.4057150085128,0.45725,1.31537010739775
1.06420965464515,-1.39015508929229,0.45725,1.31428977545963
1.0776247917084,-1.3745523905353,0.45725,1.31317220363434
1.07639117590624,-1.35893483980765,0.45725,1.31202476823907
1.05470441376685,-1.34332756786074,0.45725,1.31086181154502
1.03872056375355,-1.32770732950712,0.45725,1.30968704624603
1.07634122390288,-1.26898736807881,0.45725,1.30507939151833
1.07450198024816,-1.31204308237015,0.45725,1.30848317178137
1.0798347640968,-1.27293407066507,0.45725,1.30540332596625
1.08413024948397,-1.26137537965836,0.45725,1.30444655311056
1.05169216710575,-1.29644356652371,0.45725,1.3072607277791
1.05751880745204,-1.27696960047034,0.45725,1.30571702175671
1.05751880745204,-1.28473159438937,0.45725,1.30633124366974
1.09631086451021,-1.25358149647297,0.45725,1.30379770330515
1.09179574618106,-1.2458031672304,0.45725,1.30315019010278
1.10281364698534,-1.2380169738559,0.45725,1.30249212151739
1.0587547667341,-1.23020212111189,0.45725,1.30182663559791
1.08714486971734,-1.22237401740027,0.45725,1.30115684507189
1.06969615106741,-1.21453511570115,0.45725,1.30047803417702
1.08411626185295,-1.19772480722581,0.45725,1.29899897642265
1.10252442012958,-1.2044567138262,0.45725,1.2995952856943
1.13465216223375,-1.20165324922162,0.45725,1.29934788168283
1.07800958755844,-1.20832913167088,0.45725,1.29993493131256
1.09246219515245,-1.19272549035829,0.45725,1.29855750722648
1.01898384873102,-1.15187575539991,0.45725,1.29479082410761
1.46378245452712,-1.18884368353749,0.45725,1.29820852758368
1.07221586681097,-1.15673804110826,0.45725,1.29520587934016
1.20871108521962,-1.17973282177127,0.45725,1.29728418027518
1.20871108521962,-1.17979160793101,0.45725,1.29729095833378
1.20871108521962,-1.18353007268467,0.45725,1.29767688814338
1.05469050588615,-1.17203017976077,0.45725,1.29658980494358
1.05129494009282,-1.17059236224938,0.45725,1.29646064535209
0.9323842493377,-1.16067254747451,0.45725,1.29556530505897
0.989784267439231,-1.17603432379982,0.45725,1.29695064960826
1.10865700812012,-1.16665445519189,0.45725,1.29610725510734
-1.17613778137464,-2.02912221657852,0.45725,1.32998593134777
-1.4201979011481,-2.04468346983199,0.45725,1.32936837638226
-1.55935113088323,-2.06024427818943,0.45725,1.32867210724594
-1.75259479027085,-2.07580476279088,0.45725,1.32791128248718
-1.8839274889241,-2.091363971736,0.45725,1.32709264047393
-2.22735944246516,-2.10695118378544,0.45725,1.32618404483414
-2.34629455481335,-2.1225220059351,0.45725,1.32519190661357
-2.64202270455979,-2.13809150080156,0.45725,1.32412880333343
-2.82717611249315,-2.15362365614599,0.45725,1.32298661584095
-3.1464473101403,-2.16906708898919,0.45725,1.32177317344415
-3.37468992759818,-2.18089792411491,0.45725,1.32078600194587
-3.3831073061415,-2.18867343404734,0.45725,1.32011459748441
-3.68917494517456,-2.20006881852735,0.45725,1.31908307825218
-3.9944362927552,-2.21564108454076,0.45725,1.31760015239626
-4.41094053416568,-2.23124904707146,0.45725,1.31600620593829
-4.71382520178027,-2.246780038308,0.45725,1.31431566561261
-5.14775859242923,-2.26230234197815,0.45725,1.31252261574799
-5.49542052773434,-2.27787773603837,0.45725,1.31061599574389
-5.92224150091765,-2.29345843009867,0.45725,1.30860739500389
-6.44922102995705,-2.30882889853912,0.45725,1.30649920131805
-6.87490773500066,-2.32038541332031,0.45725,1.30483227601746
-6.81384967235954,-2.32813008988204,0.45725,1.30368070711515
-6.56297989963931,-2.89858190415905,0.45725,1.11046399204554
-7.2732788931408,-2.3397765125017,0.45725,1.30189952583582
-7.39237956814199,-2.88293506396646,0.45725,1.11803814173379
-7.83415953478313,-2.35537420136,0.45725,1.29943523120052
-8.11834107838295,-2.86739540394865,0.45725,1.12541094452775
-8.8368460214297,-2.3708572609942,0.45725,1.29679538286953
-8.53237706485666,-2.83607044409973,0.45725,1.13980816782252
-8.254332481717,-2.85162175274396,0.45725,1.13270732397591
-9.29806716835316,-2.38644641606573,0.45725,1.29390291710604
-9.34152017501298,-2.80470334911532,0.45725,1.15388725400316
-8.95154243327274,-2.82024776475666,0.45725,1.14696225195819
-9.66586093838376,-2.40175801614346,0.45725,1.29093649937354
-9.84514032210573,-2.78919207353484,0.45725,1.16071727277697
-10.1661145419118,-2.41712621479847,0.45725,1.28783557257766
-10.1217411779196,-2.77775735647095,0.45725,1.16567751657212
-10.3056600863819,-2.77036515815162,0.45725,1.16883499209881
-10.5761841923068,-2.43277688493529,0.45725,1.28454216112691
-17.7212526546938,-2.55542333173192,0.45725,1.25241666045931
-10.5199728463973,-2.75847314984969,0.45725,1.17388994474806
-19.4526759133271,-2.55833954649834,0.45725,1.25144617406784
-11.0601169073569,-2.44839085915725,0.45725,1.28114826391855
-17.0851062139403,-2.5533817798476,0.45725,1.25307872406396
-16.6129789119161,-2.54982440691114,0.45725,1.25422935171473
-10.9454916884001,-2.74291572321576,0.45725,1.18043555200984
-21.3100452035608,-2.56207341093614,0.45725,1.25004318782005
-11.9041146103656,-2.46388679205503,0.45725,1.27763865762329
-12.4461750900932,-2.47525180505729,0.45725,1.27496536539964
-15.9130196593938,-2.54643033925795,0.45725,1.25529635967748
-15.9130196593938,-2.54277856515345,0.45725,1.25641169306384
-15.9130196593938,-2.53706689890902,0.45725,1.25815517174186
-11.2054006968828,-2.72736553764252,0.45725,1.18686136347846
-16.7702841886994,-2.56298892124866,0.45725,1.2495760594025
-12.7844711850625,-2.48281363680681,0.45725,1.27311746626466
-15.0828491839494,-2.52971837084825,0.45725,1.26035773665008
-15.1333057061129,-2.52216260223019,0.45725,1.26256461563506
-11.406735204235,-2.71131346383515,0.45725,1.19336450793388
-11.6053949726756,-2.69600720473853,0.45725,1.19947680867171
-15.6696413321006,-2.57040764399448,0.45725,1.2462918770863
-15.0283400921583,-2.56625045686792,0.45725,1.24813352806215
-12.403526587621,-2.57606351520927,0.45725,1.24436403654203
-13.2566448510429,-2.61465247370279,0.45725,1.23058212690042
-13.4499571616497,-2.49450238999367,0.45725,1.27014646593553
-14.5742149290664,-2.51022246375433,0.45725,1.26594090866266
-12.9068667869563,-2.63373970708088,0.45725,1.2235499061842
-12.8230905286276,-2.64959758765223,0.45725,1.21761429669802
-12.0371128441718,-2.68077912502557,0.45725,1.20550698804857
-13.0204608788213,-2.6221735790117,0.45725,1.22782569527026
-14.098863220992,-2.57248827715815,0.45725,1.24550962603352
-13.4384854317342,-2.57857954209206,0.45725,1.24355885972114
-13.2506405779806,-2.60286322702024,0.45725,1.23484521601841
-12.6223936968181,-2.66515071572096,0.45725,1.21164924329179
-13.7540571586954,-2.58680755456627,0.45725,1.24060792580933
0.0115326299711103,-1.70157876813968,0.45725,-0.00951930615432766
0.0112781440488372,-1.71720344371743,0.45725,-0.00953866004976415
0.0104432965819278,-1.73282818580458,0.45725,-0.00955740768556402
0.0104983686663574,-1.74845289040087,0.45725,-0.0095755011161076
0.0104783326117625,-1.7640775481298,0.45725,-0.00959349786994242
0.0114785538136566,-1.77970190193986,0.45725,-0.00961258727647337
0.0114730477109897,-1.79532666253148,0.45725,-0.00963284548352777
0.009620728365911,-1.81095176502904,0.45725,-0.00965123411781254
0.00961766077586844,-1.82657649822166,0.45725,-0.0096676770839545
0.00960059306616079,-1.84220121965424,0.45725,-0.00968409767670199
0.00915393499075208,-1.85782599349937,0.45725,-0.00970016422315474
0.00893643919571176,-1.87345076585044,0.45725,-0.00971565420114624
0.00895335789504967,-1.88907547253482,0.45725,-0.0097308992835767
0.0102465511902027,-1.90469997603719,0.45725,-0.00974755291655054
0.00965568066345148,-1.920324712305,0.45725,-0.00976509590736587
0.00837430614572128,-1.93594963848012,0.45725,-0.00978065710968255
0.00840246464111633,-1.95157431861484,0.45725,-0.00979475572324283
0.00832492579922296,-1.96719902317546,0.45725,-0.00980873374037929
0.00773094341510333,-1.98282378795995,0.45725,-0.00982214884844441
0.00771207706932792,-1.99844854354663,0.45725,-0.00983503752798929
0.00775134719105113,-2.01407325413781,0.45725,-0.00984784208221282
0.00860242182946536,-2.02969769915191,0.45725,-0.00986151302950287
0.00860215359730782,-2.04532247279798,0.45725,-0.00987619958269197
0.00694315389008917,-2.06094748110845,0.45725,-0.0098892438033165
0.00700326726143548,-2.07657212841716,0.45725,-0.00990050483543422
0.00696069826351712,-2.09219679719806,0.45725,-0.0099116785096694
0.00660346986855813,-2.10782151004046,0.45725,-0.00992247082795545
0.00646034185736778,-2.12344619687747,0.45725,-0.00993281035738978
0.00651331039731975,-2.1390708373654,0.45725,-0.00994298274207026
0.00717120390973118,-2.15469525396344,0.45725,-0.00995376248736803
0.00742766958806935,-2.17032000985134,0.45725,-0.00996554921475196
0.00558342907020244,-2.1859449615263,0.45725,-0.00997588004827803
0.00563755172408438,-2.20156955573543,0.45725,-0.00998435537177637
0.00554588175736377,-2.21719421260683,0.45725,-0.00999268543620791
0.00508950873635786,-2.2328189174123,0.45725,-0.0100005157802095
0.00494462892333589,-2.24844366470264,0.45725,-0.0100078593330059
0.00498972485121542,-2.26406845373638,0.45725,-0.0100150601501862
0.00591518436583694,-2.27969301453591,0.45725,-0.010023057693495
0.00706992766042853,-2.29531755076016,0.45725,-0.0100326404595016
0.00407862425840832,-2.31094260420301,0.45725,-0.0100406586192757
0.00408415547340551,-2.32656768558122,0.45725,-0.0100462904389473
0.003870677867298,-2.34219248269691,0.45725,-0.0100516665667875
0.00326072724916674,-2.3578172939064,0.45725,-0.0100564691629437
0.00285958015594602,-2.37344202502991,0.45725,-0.0100605644423911
0.00309895181132886,-2.3890664576589,0.45725,-0.0100644795044637
0.00556276442342418,-2.40469089317472,0.45725,-0.0100701707056927
0.00393223276231639,-2.42031572120312,0.45725,-0.0100764582089358
0.0030575447175512,-2.43594052143117,0.45725,-0.0100809714357256
0.00299899104122693,-2.45156517608116,0.45725,-0.010084635042748
0.00222934160853934,-2.46718990257211,0.45725,-0.0100877347055856
0.00172595411512025,-2.48281465999656,0.45725,-0.0100900747289539
0.00162333884494653,-2.49843941409554,0.45725,-0.0100920274340736
0.00165649525239501,-2.5140641483688,0.45725,-0.0100938780749411
0.0024966843294232,-2.52968875407641,0.45725,-0.0100963498377122
0.00161868622573724,-2.54531350406474,0.45725,-0.0100988619453953
0.00105387452265381,-2.56093837476608,0.45725,-0.0101003800677422
0.0010786082259051,-2.57656308932439,0.45725,-0.0101014849809127
0.000731921000890933,-2.59218787243584,0.45725,-0.0101023782008992
-0.000194133296707245,-2.60781267257321,0.45725,-0.010102652752152
-0.000391029991114527,-2.62343739359458,0.45725,-0.0101024007504292
-0.000401499629242004,-2.63906208702712,0.45725,-0.0101020291716814
6.04713279200966e-05,-2.65468673008902,0.45725,-0.010101957451609
-0.00095699549525785,-2.67031148199196,0.45725,-0.0101017834860707
-0.00192291763489768,-2.68593626171935,0.45725,-0.0101006808154912
-0.0019813009586808,-2.70156091005953,0.45725,-0.0100990515433425
-0.00249480202548385,-2.71718563734803,0.45725,-0.0100972025114676
-0.00416108012034575,-2.73281037743421,0.45725,-0.01009459675837
-0.00464492224979776,-2.74843501084014,0.45725,-0.0100912839304866
-0.00480441813026645,-2.76405960371644,0.45725,-0.0100878009899527
-0.00474405168841751,-2.77968406771099,0.45725,-0.0100844736791086
-0.00634489579192081,-2.79530832115743,0.45725,-0.0100808008386312
-0.00709602040134429,-2.81093236013488,0.45725,-0.0100764069992941
-0.00739046477007388,-2.82655621247994,0.45725,-0.0100717852730309
-0.00834199134252048,-2.842178842363,0.45725,-0.0100669730135225
-0.00935224978870764,-2.85779943591803,0.45725,-0.0100617829320402
-0.00980542642132326,-2.87341907802452,0.45725,-0.0100563830179335
-0.0111144138303584,-2.88903545958495,0.45725,-0.0100507113882285
-0.012470133111364,-2.90464585672014,0.45725,-0.0100446105323692
-0.0131464319131183,-2.92025276668088,0.45725,-0.0100383238151432
-0.0150393453768782,-2.93585057836075,0.45725,-0.0100317694849047
-0.0167486730265258,-2.95143763703819,0.45725,-0.0100248458154515
-1.53610685670887,-3.11106116518852,0.45725,-0.00553036762405467
-0.3627525522786,-2.9670314656509,0.45725,-0.00994710319873401
-1.20396063495501,-3.12668261407375,0.45725,-0.00485055628607019
-1.42276011469119,-3.11886878889622,0.45725,-0.00519188033848694
-1.61014391102123,-3.10333559615249,0.45725,-0.00586289476722972
-0.6220388035151,-2.98261269815701,0.45725,-0.00975055693385101
-1.10404867489142,-3.13449736673638,0.45725,-0.00450603359066638
-1.0158532975247,-3.1423074799435,0.45725,-0.00415906215003633
-1.90892137330754,-3.09160736141251,0.45725,-0.00636284208445838
-0.800254215808944,-2.99817364283985,0.45725,-0.00947653480359704
-0.988693314065341,-3.15011642567267,0.45725,-0.00381125332628444
-1.90264635713168,-3.07591541187865,0.45725,-0.00702599331758148
-0.943889256434185,-3.01372641607485,0.45725,-0.00915190668895109
-0.954456186720503,-3.1579256714718,0.45725,-0.00346333084395822
-1.89055314062151,-3.06035554094134,0.45725,-0.00767479870094579
-1.19224992328122,-3.02926860472356,0.45725,-0.00876798303094454
-0.857310074897037,-3.17353779204229,0.45725,-0.00276344799029382
-0.917000672963472,-3.16573230312293,0.45725,-0.00311497154567757
-1.62942311077882,-3.04481087851108,0.45725,-0.00827670598310853
-0.695343815994957,-3.18915935303796,0.45725,-0.00205067429585722
-0.768099616507739,-3.18134667734632,0.45725,-0.0024078485823948
-0.639487698643038,-3.20480984092045,0.45725,-0.00133430171105856
-0.649628112868061,-3.19697107356859,0.45725,-0.00169335705213316
-0.696736585413875,-3.22042879620814,0.45725,-0.000609420797761736
-0.660886402293684,-3.21263797055206,0.45725,-0.000972816184101802
-1.19720465208427,-3.53284858153819,0.45725,0.0150129849328126
-0.796998809779848,-3.23601704779355,0.45725,0.000120593130212716
-0.743202905584751,-3.2282219184116,0.45725,-0.000244563109613524
-1.21414423805082,-3.5250629231388,0.45725,0.0146035476003923
-0.919535667887781,-3.25160064468567,0.45725,0.000853683287917295
-0.857127873680949,-3.24381044775762,0.45725,0.000486158716783908
-1.24691047986821,-3.50937730288881,0.45725,0.0137821843748415
-1.2321749692862,-3.51722689123708,0.45725,0.0141928303163778
-1.1166450147919,-3.28288271112377,0.45725,0.0023482522964197
-1.07037163268716,-3.27503050769807,0.45725,0.00197087523946668
-1.02468969112474,-3.26718421604485,0.45725,0.00159573818421689
-0.976230881828166,-3.25939059975511,0.45725,0.00122391599619593
-1.29283092344846,-3.48593208971929,0.45725,0.0125579297354033
-1.30075603982976,-3.47812175113478,0.45725,0.0121526259019548
-1.26745971844899,-3.50156383932839,0.45725,0.0133736010748753
-1.28018393752443,-3.49374877999193,0.45725,0.0129652133130566
-1.18148143911601,-3.29849556310617,0.45725,0.00310411965807624
-1.15157963470314,-3.29069021275248,0.45725,0.00272577879564483
-1.3137849224493,-3.47031740673419,0.45725,0.0117484530818133
-1.32637587769378,-3.46251081754539,0.45725,0.0113443377040934
-1.23616385783158,-3.31410829233589,0.45725,0.0038643031728011
-1.20805683696298,-3.3063022029764,0.45725,0.00348317928163768
-1.33569608434817,-3.45469957087125,0.45725,0.0109401967661434
-1.33756498523046,-3.44688550991338,0.45725,0.0105373791120258
-1.25930134741768,-3.32191330025225,0.45725,0.00424736564608511
-1.27374889107868,-3.32972267327753,0.45725,0.00463128892228962
-1.33944064223131,-3.43907266160149,0.45725,0.010136688763328
-1.30686493634061,-3.34535247018624,0.45725,0.00540326017728492
-1.28775101723083,-3.3375376366739,0.45725,0.00501624808308744
-1.34269430068189,-3.43122402161571,0.45725,0.00973509186467845
-1.32284686084113,-3.36097278644991,0.45725,0.0061808414752543
-1.31493851273271,-3.35316364266989,0.45725,0.0057918413988439
-1.34605159224209,-3.42338709616992,0.45725,0.0093342372296303
-1.35050579032465,-3.41559957430955,0.45725,0.00893603630355434
-1.33742448053785,-3.3766467673458,0.45725,0.00696612250948484
-1.32846759030732,-3.36881339981275,0.45725,0.00657261091834506
-1.3382756575216,-3.40002903309426,0.45725,0.00814579361869308
-1.3434555724272,-3.40781267301316,0.45725,0.00853962769705718
-1.337560761814,-3.38444368530229,0.45725,0.00735923117783074
-1.34003749148297,-3.3922411101609,0.45725,0.00775265336701826
11.5091085484451,-4.18477979372403,0.45725,0.583972122202325
8.88770092305044,-4.18271638496082,0.45725,0.585535416119963
3.15024336900146,-4.17848798669084,0.45725,0.587744648008471
5.16571532607367,-4.18069928097958,0.45725,0.586999120473188
7.18372452402033,-4.17484979588318,0.45725,0.589351823056437
3.95165319197803,-4.18046764568503,0.45725,0.587119230305463
11.1016261451171,-4.1728548746538,0.45725,0.590577521624829
6.55707317622025,-4.16488761188656,0.45725,0.593866314872222
1.12459765642529,-4.17055825060835,0.45725,0.5915012389836
4.40659032011147,-4.16674791317435,0.45725,0.593018745434118
1.9949788231963,-4.16364984697588,0.45725,0.594328238977908
6.79986008194127,-4.16159370459747,0.45725,0.595492098440031
5.51162337692223,-4.15878154071726,0.45725,0.597809071954003
5.4078567489389,-4.15555626480978,0.45725,0.600437786952444
5.22380096964874,-4.15014103890699,0.45725,0.604749488417136
3.24910654632566,-4.15379707263757,0.45725,0.601849961187177
3.73613356477147,-4.15218768790771,0.45725,0.603123365528557
2.55173660099438,-4.14737121838034,0.45725,0.606916136624761
2.05612459908342,-4.1444688355219,0.45725,0.609156879753002
1.5354154950153,-4.14256760726551,0.45725,0.610600052517257
1.31396188009981,-4.13805082367184,0.45725,0.6139560409583
