"Pnx","X (m)","Y (m)","Z (m)"
4.25178015380144,-0.576314078619512,0.566244622812972,1.01639
4.28700633725149,-0.569302832621866,0.554527093213226,1.01639
4.32815973083644,-0.564177407735825,0.545897382754894,1.01639
4.36352861979059,-0.559760788464978,0.538230477449622,1.01639
4.4006282431512,-0.55212027087435,0.524779760858107,1.01639
4.43393374219181,-0.547711869740153,0.516909464161785,1.01639
4.45404698985249,-0.543026604706149,0.508458129718351,1.01639
4.4886660081397,-0.536129280516503,0.495853168722535,1.01639
4.51307577362248,-0.531651046728612,0.48750620792218,1.01639
4.55820668060962,-0.526093089098613,0.476977328287175,1.01639
4.60877222600255,-0.519846306493864,0.464881072173098,1.01639
4.64751380923371,-0.515803204276696,0.456812012322432,1.01639
4.67825041482786,-0.510513618290343,0.446010335711607,1.01639
4.69671358304422,-0.50454179017029,0.433708353634187,1.01639
4.74085617140057,-0.500651062160566,0.42563225961448,1.01639
4.78819192180151,-0.495673082398933,0.414943128174538,1.01639
4.8349449861679,-0.489210085432339,0.400575702165918,1.01639
4.8493206051735,-0.485809436031627,0.39282266526789,1.01639
4.88401924237512,-0.482118126242383,0.384294105248432,1.01639
4.92486050499497,-0.475606125767523,0.368811929638289,1.01639
4.93351842305649,-0.471597896094961,0.359024965338028,1.01639
4.9480782036281,-0.46838195988519,0.351235498127489,1.01639
5.00377675398968,-0.462994782473699,0.33782378662777,1.01639
5.05124593320125,-0.457549771944926,0.3234030547298,1.01639
5.06816738279016,-0.454735453185926,0.315608654076088,1.01639
5.08040895617984,-0.451650826174229,0.306863247594714,1.01639
5.11469840688548,-0.446423796106086,0.291520554575835,1.01639
5.13773607331126,-0.441755603692264,0.277090323363451,1.01639
5.15801378053787,-0.439275950200959,0.269263719824733,1.01639
5.15923565516603,-0.436582279561375,0.260441472651582,1.01639
5.16672772595038,-0.431944236538689,0.245022379807239,1.01639
5.18780104263501,-0.427647749137406,0.229707596599844,1.01639
5.15888539005884,-0.425141643457356,0.22000567741244,1.01639
5.19659055086955,-0.423291089989578,0.212165261812369,1.01639
5.20408468242692,-0.420097571941015,0.198647736648095,1.01639
5.2191745891748,-0.416547781553601,0.183365204340215,1.01639
5.22214751086148,-0.413322455581003,0.168109987720218,1.01639
5.21473273148921,-0.410403557703036,0.152700943465214,1.01639
5.17240097377202,-0.408931792842775,0.14466226736316,1.01639
5.19778722522739,-0.407784571357204,0.136854739390805,1.01639
5.17384582104967,-0.405563681084773,0.121626907726785,1.01639
5.18096579250491,-0.403351221079291,0.106273402358539,1.01639
5.21572161524691,-0.401318832735722,0.0908988815321628,1.01639
5.24374124685675,-0.399655865514737,0.0754674723258402,1.01639
5.22185292151308,-0.398287524971539,0.0600396120117504,1.01639
5.20871301129059,-0.397286990104327,0.0446547210985457,1.01639
5.23743981809653,-0.396679955454679,0.0292608276558799,1.01639
5.2471605491019,-0.395920561568779,0.00307894716796118,1.01639
5.21948809766957,-0.396218892196355,0.0138661298156396,1.01639
-1.64020422317775,-3.07183662490124,0.481044960109295,1.01639
-1.48014901661478,-3.07494465781691,0.467590452017556,1.01639
-0.319697589284947,-3.07667341324323,0.459709540062378,1.01639
0.20781303504129,-3.07871333438375,0.449765253016825,1.01639
0.617745512772916,-3.08178950856239,0.434339848265654,1.01639
0.81771928536204,-3.08481084731103,0.418859757363476,1.01639
1.09108194691583,-3.08785005693774,0.403282367171222,1.01639
1.30078202016216,-3.09049549468461,0.389433835199208,1.01639
2.65501647717441,-3.09195111301037,0.381563280475005,1.01639
2.85765314943766,-3.09349344088796,0.371986899157052,1.01639
3.08708739890665,-3.09589939279353,0.356511790856783,1.01639
3.2508855427687,-3.09830357315501,0.341009452046317,1.01639
3.42186724861048,-3.10070404774056,0.325482692275183,1.01639
3.63097995107852,-3.10299762616627,0.309892068269328,1.01639
3.89014399666293,-3.10516621239934,0.294287973143638,1.01639
4.12507548608433,-3.10685781734033,0.281874663036863,1.01639
5.00895557247625,-3.1079052774769,0.274023161507787,1.01639
5.14182092255312,-3.10936133680447,0.263052973669583,1.01639
5.24077847292827,-3.11141907438538,0.24754964399276,1.01639
5.31411858714848,-3.11314414854657,0.232020741069435,1.01639
5.32321554354728,-3.11449596046599,0.216468706278492,1.01639
5.35393418554607,-3.11579766599653,0.200910866090882,1.01639
5.35935882885978,-3.11707841865414,0.185348414614821,1.01639
5.50744695995577,-3.11833250010991,0.169758838610632,1.01639
5.68089477556537,-3.11945099432475,0.154164591434175,1.01639
5.65007252492074,-3.12037667672176,0.138590666614572,1.01639
5.70693633145117,-3.1211841668979,0.123017086336028,1.01639
5.81583034704949,-3.12193188978599,0.10774629177548,1.01639
6.60685434810403,-3.12231453000554,0.0999237552138568,1.01639
6.68455236470134,-3.12258401483547,0.0918151254833051,1.01639
6.7897394893254,-3.12308212581529,0.0762612350561309,1.01639
6.81465581596963,-3.12350648924153,0.0606997914777555,1.01639
6.90416389996042,-3.12445519912631,0.00311007436909083,1.01639
6.79584624415972,-3.12383726814184,0.0451369636435627,1.01639
6.87385967369981,-3.12435198005082,0.0140010716037981,1.01639
6.81057580690879,-3.124133229603,0.0295669232669933,1.01639
-1.92573843196324,-3.06809620023701,0.496588341008203,1.01639
-2.54223711418371,-3.06415695064276,0.51195482386504,1.01639
-3.03726360985602,-3.06144867698999,0.522010410291948,1.01639
-4.02640074607969,-3.0592965003944,0.529890193816071,1.01639
-4.81098532599232,-3.05554331133449,0.543164698314074,1.01639
-5.64578895667694,-3.05083833583421,0.558588881865773,1.01639
-6.05408107114987,-3.04705304353356,0.570283069691955,1.01639
-7.195437809225,-3.04445848248429,0.578100940546093,1.01639
-7.8598767030514,-3.04035852091331,0.589619783049355,1.01639
-8.43425313928792,-3.03461869381583,0.604923207437298,1.01639
-50.8663654207134,-3.03011849500357,0.69311325329767,1.01639
-52.781743944117,-3.03048322606088,0.692930427507914,1.01639
-52.8925235823341,-3.02848414285427,0.69391649221453,1.01639
-66.6556725347748,-3.03179523367896,0.691732547613048,1.01639
-60.7887259540228,-3.0344980585494,0.68816640239816,1.01639
-8.15806143307847,-3.0308146987702,0.614634596514546,1.01639
-8.73747435586883,-3.02754605626346,0.622414840302421,1.01639
-8.3145568019131,-3.02225067396075,0.634493780662473,1.01639
-42.3264611517908,-3.02668934336832,0.694764797272183,1.01639
-35.0968893761307,-3.02239983941594,0.696126483791498,1.01639
-70.7394365545067,-3.03681725714813,0.664195553390478,1.01639
-54.2278812597461,-3.03708207601979,0.665760895207794,1.01639
-62.4141594778565,-3.03371141478503,0.689418711671763,1.01639
-60.089095444654,-3.03512025335256,0.686746869594668,1.01639
-11.0690447610737,-3.03193090638943,0.662207951845524,1.01639
-10.8344035356094,-3.03434590199163,0.662972324845385,1.01639
-8.21948577500859,-3.02427030290369,0.630044027255085,1.01639
-7.1775347149814,-3.02007547049431,0.639142416811855,1.01639
-30.765257443518,-3.01657440684159,0.697901261155625,1.01639
-6.54310439176474,-3.03664980907554,0.663674358560297,1.01639
-6.54310439176474,-3.03643369784601,0.66363646281819,1.01639
-45.6986018275135,-3.03679357638965,0.667789461129116,1.01639
-65.7979111732163,-3.03613874768926,0.684025056387528,1.01639
-2.27147891916133,-3.0301475130007,0.66193750875578,1.01639
-6.11869234593198,-3.01857919958263,0.642252912337384,1.01639
-22.5249074472795,-3.01285341870804,0.698940443360905,1.01639
-21.3218576861691,-3.00728334230469,0.700298527084259,1.01639
-17.9231887536661,-2.9996179354453,0.701950412375273,1.01639
-16.8427163490021,-2.99203219115723,0.703406206350064,1.01639
-41.9832986179479,-3.03620137246441,0.669023211156487,1.01639
-61.9301881229937,-3.03638670392879,0.68199618608222,1.01639
-0.70716972737121,-3.02692103400034,0.661573092770675,1.01639
-0.408920813840315,-3.00937673507863,0.660198250786871,1.01639
-0.311347546849723,-3.02151192494115,0.661093740765933,1.01639
-4.07021638160649,-3.0120951480197,0.654865183988545,1.01639
-4.07021638160649,-3.01228068129415,0.654517117205508,1.01639
-4.07021638160649,-3.01251633869524,0.654071075274511,1.01639
-5.20998008959982,-3.01752044404366,0.644409813235519,1.01639
-2.6818938231562,-3.01057365182467,0.657620955861971,1.01639
-14.3067949569918,-2.98718839505592,0.704290561343001,1.01639
-28.5215475321823,-3.03587121975331,0.669427342577073,1.01639
-38.7578497463814,-3.03598076844583,0.681014546523356,1.01639
-0.252498934967821,-3.02334084390257,0.661229846482136,1.01639
-0.330979232141843,-3.01154092793491,0.660354012009267,1.01639
-0.227859520763834,-3.01561921292786,0.660651500250384,1.01639
-0.130421314728676,-3.01955268372642,0.660945055067266,1.01639
-4.56756238084338,-3.01477832507404,0.649734461321736,1.01639
-11.1399555763388,-2.98344272345877,0.704892569675067,1.01639
-9.65206090858337,-2.9770211669199,0.705849343666806,1.01639
-31.8766813738175,-3.03278689959661,0.671966547345416,1.01639
-31.8766813738175,-3.03314521305732,0.671887519405801,1.01639
-31.8766813738175,-3.03343473088667,0.671654944943819,1.01639
-31.8766813738175,-3.03465056729364,0.670505238515427,1.01639
-10.3480031777975,-3.0320778154484,0.672111061662092,1.01639
-46.8133866174408,-3.03556440865825,0.680136402769997,1.01639
-32.5933257247827,-3.02936383265033,0.673641934748121,1.01639
-8.4878208104553,-2.96938861482274,0.706886201349377,1.01639
-7.46184879916112,-2.96175717843561,0.707807384610153,1.01639
-20.7369533329338,-3.03121283573307,0.672346613602668,1.01639
-14.4575374099162,-3.03517898285775,0.679321298839496,1.01639
-14.4575374099162,-3.03451014684893,0.6788671154213,1.01639
-14.4575374099162,-3.03347279197202,0.678627535465702,1.01639
-14.4575374099162,-3.03389360327815,0.678682704903646,1.01639
-33.0110263366936,-3.03014594393536,0.67301713296008,1.01639
-39.4492533776177,-3.02905896575866,0.673957687240887,1.01639
-39.4492533776177,-3.02872095575542,0.674349484160208,1.01639
-39.4492533776177,-3.02882531142199,0.674222256159608,1.01639
-6.65951371330962,-2.95410559876129,0.708638395665761,1.01639
-6.39310800058199,-2.94644782454304,0.709410250634476,1.01639
-5.48140205169591,-2.93886022610254,0.710091418666111,1.01639
-30.1884416851122,-3.03228648330397,0.677390454712284,1.01639
-27.1859861314831,-3.0292075665245,0.674773439987818,1.01639
-5.1647500224061,-2.93331822774273,0.710537718796442,1.01639
-28.45922407339,-3.03056194240348,0.675674108631382,1.01639
-4.42150169550688,-2.92826908282748,0.710903275307396,1.01639
-4.42150169550688,-2.92923991155029,0.710840677255936,1.01639
-4.42150169550688,-2.93058906219297,0.710743652609093,1.01639
5.27594684101644,-2.91886628852858,0.711301168462529,1.01639
6.38124073995594,-2.91535453678193,0.711087463080189,1.01639
26.0547440922101,-2.90332329007259,0.709279399255784,1.01639
2.67080628408577,-2.8945596948637,0.708582097810298,1.01639
2.19202946054862,-2.89964606635209,0.708724188815105,1.01639
-1.16072435704069,-2.89113958833515,0.708528151510934,1.01639
-3.42931033729809,-2.92417328097607,0.711171679027967,1.01639
16.3770251894049,-2.91191547040897,0.710610455425096,1.01639
10.218968782802,-2.90830540251843,0.709959499819368,1.01639
-1.58196737624608,-2.9055535808522,0.709698555922049,1.01639
-1.17800560048858,-2.89664129571034,0.708620538977702,1.01639
1.31108606521553,-2.88158195478726,0.708877889624852,1.01639
-3.28689016512447,-2.88708123322608,0.708615162304714,1.01639
-3.3636371359023,-2.88358164651724,0.708779444622748,1.01639
-2.1226600460179,-2.87919090503668,0.70897668514872,1.01639
-2.1226600460179,-2.8771350130235,0.709052777408623,1.01639
-2.1226600460179,-2.87724887995198,0.70905027142647,1.01639
-3.20063255474717,-2.87508446535761,0.709144296416284,1.01639
-3.184786103814,-2.86906124500386,0.709415884109122,1.01639
-3.14510189199763,-2.85844873093505,0.70989642110325,1.01639
-3.14510189199763,-2.86103582905595,0.709781098659614,1.01639
-3.14510189199763,-2.86372399763586,0.709658741291523,1.01639
-3.19439561960098,-2.85332563251284,0.710127274075816,1.01639
-3.12803805997264,-2.84655437838988,0.710430512442045,1.01639
-3.15609755821706,-2.83680831942885,0.710859239602421,1.01639
63.719750427896,-2.81008757187572,0.707998271719455,1.01639
-3.0631494317881,-2.84266486600193,0.710601536100494,1.01639
-3.08747448611475,-2.84065142705725,0.710690099348301,1.01639
-3.11814067712984,-2.82995166349012,0.711159544431078,1.01639
-3.27626006443014,-2.82014994105954,0.711592567706412,1.01639
-3.27626006443014,-2.8218664869722,0.711516117337557,1.01639
-3.27626006443014,-2.82313118445352,0.711458588326066,1.01639
-3.27626006443014,-2.8247138463649,0.71138836836291,1.01639
102.870152031143,-2.81104879052334,0.710068129817012,1.01639
2.38355273440211,-2.81197891275189,0.7117196871229,1.01639
-10.52345530107,-2.80754053830002,0.707958682440169,1.01639
2.52175216841626,-2.81490809555682,0.711729037388773,1.01639
-3.17784792247438,-2.81779386193494,0.711693825785523,1.01639
-12.8348908008048,-2.80958094199832,0.707626632077154,1.01639
-1.15750734079702,-2.81287072569377,0.711711708087187,1.01639
-8.82792252036761,-2.80449698272696,0.708437203883889,1.01639
-5.70946050783914,-2.80110385550549,0.708849109446818,1.01639
-5.00154278814211,-2.79696986698428,0.709231870008348,1.01639
-4.96722083418588,-2.79286414037971,0.709559706943381,1.01639
-4.96722083418588,-2.79429667801679,0.709450106218074,1.01639
-4.62862626868504,-2.78970922619178,0.709781954503255,1.01639
-2.35078548727593,-2.7842347011939,0.710040950711133,1.01639
-0.0560418001041698,-2.13901830792052,0.71773568401593,1.01639
21.5335279314701,-2.77987143127766,0.709842652416516,1.01639
-0.0960237901954169,-2.15463385086826,0.717680159409085,1.01639
16.099450808869,-2.77840310230909,0.709496946103868,1.01639
-0.109451421651611,-2.17024911594555,0.717600298632503,1.01639
32.6249106486754,-2.77669999559584,0.708742667957638,1.01639
-0.134550476831433,-2.18586285773313,0.717510409294101,1.01639
46.7922049014235,-2.77444992451317,0.707364737640715,1.01639
44.8319335781974,-2.7735573129405,0.706602528803375,1.01639
-0.146489669605862,-2.20147635272321,0.717410466970307,1.01639
27.8711414715849,-2.7716667314832,0.705701132880358,1.01639
-0.154337981981895,-2.21708869268586,0.717301834835654,1.01639
7.70304917477371,-2.76741572500202,0.704570416848574,1.01639
-0.172415162279907,-2.23270108330916,0.717183668392338,1.01639
-2.37195533788962,-2.76256068839713,0.704350137795742,1.01639
-0.188957513718644,-2.24831298669797,0.717053937190237,1.01639
-2.19626292060283,-2.75811067185638,0.704532796846981,1.01639
-0.19116452042066,-2.26392409474159,0.716917256951262,1.01639
-2.05312515629675,-2.752056422688,0.704773995366582,1.01639
-0.221244570699299,-2.27953608124597,0.716771881949266,1.01639
-2.09731378663195,-2.74577377208737,0.70502381378339,1.01639
-0.34241515950721,-2.29514891025533,0.716581823622757,1.01639
-1.94524640533622,-2.74177960026535,0.705181910276415,1.01639
-0.341971105874397,-2.31076034508102,0.716355042126522,1.01639
-2.00624196408187,-2.73620817913371,0.705400532295912,1.01639
-0.368549055822803,-2.32636956220648,0.716108313391748,1.01639
-1.98453584527276,-2.72839468590964,0.705708871331994,1.01639
-0.279032345389276,-2.34198008521124,0.715874195909412,1.01639
-1.90249120023498,-2.71661975733246,0.706156248204077,1.01639
-0.33828767632911,-2.3575926816258,0.715652298100138,1.01639
-1.81993440558845,-2.70099122508963,0.7067318697526,1.01639
-0.37153031896823,-2.3732044397305,0.715403451939938,1.01639
-1.73606965162632,-2.68539344335077,0.707300067484662,1.01639
-0.389064163883773,-2.388815217814,0.715142366974808,1.01639
-1.63978692187174,-2.66979056695309,0.70786109159264,1.01639
-0.402311128802817,-2.40442593140444,0.714874559404465,1.01639
-1.52146340410958,-2.65418952627767,0.708401413389381,1.01639
-0.47564731317041,-2.42003581309795,0.714586381735518,1.01639
-1.38974950240891,-2.63858862159553,0.708920467819558,1.01639
-0.497666062378012,-2.43564434880291,0.714272079823484,1.01639
-1.30161296876726,-2.62299044350337,0.709419959436118,1.01639
-0.524118824648234,-2.45125215785427,0.713946283431743,1.01639
-1.25555984978535,-2.60739161210965,0.709913755718322,1.01639
-0.587351593057071,-2.46685972940055,0.713602503814911,1.01639
-1.10143063042978,-2.59178878968471,0.710394324203874,1.01639
-0.644531349533487,-2.48246803491056,0.713236470678505,1.01639
-0.95404640791085,-2.56608704596739,0.71106770788371,1.01639
-0.893062472723959,-2.57617917306782,0.710814752155941,1.01639
-0.692674217902305,-2.49807680040991,0.712855685173443,1.01639
-0.882343974091865,-2.55827340499585,0.711277160480334,1.01639
-0.789601867087227,-2.51370789019509,0.712455380072673,1.01639
-0.872106531370174,-2.54494199184513,0.711634064794948,1.01639
-0.811009689243036,-2.52933668178933,0.712046941037912,1.01639
0.436292312042594,-1.67068676603631,0.712383393415023,1.01639
0.466768337772246,-1.65505993299291,0.711941851342398,1.01639
0.550436940494575,-1.62587908081894,0.711050969305562,1.01639
0.510237531755851,-1.63946116504846,0.711478646313627,1.01639
0.573155488444937,-1.61806735433449,0.710795216538497,1.01639
0.535389391225736,-1.60823467634144,0.7104785076603,1.01639
0.566401260527605,-1.59262955399978,0.709975569441629,1.01639
0.545408537077724,-1.57702402544642,0.709474943256867,1.01639
0.556502798132727,-1.56141834026207,0.708980485767839,1.01639
0.591806907709749,-1.54581568920661,0.708465800989515,1.01639
0.599575759459683,-1.53021644885265,0.707931185741841,1.01639
0.627311022417989,-1.51461650919903,0.707384770487396,1.01639
0.63904347353272,-1.49901737426589,0.706827581262233,1.01639
0.662505538498616,-1.48342144815697,0.706252812149095,1.01639
0.659727828642585,-1.46777792117346,0.705659276467559,1.01639
0.696842620848942,-1.45212603292155,0.705052790383262,1.01639
0.706207780309441,-1.43651374922215,0.704433386550136,1.01639
0.709016283059034,-1.42090059163555,0.703800600038631,1.01639
0.725240725720614,-1.40528707993369,0.703148747853068,1.01639
0.735335121794074,-1.38967358700141,0.702484345665929,1.01639
0.778585187066386,-1.37404327770494,0.701800360123781,1.01639
0.753377581230425,-1.35841791903085,0.70109031519874,1.01639
0.637867678269196,-1.34280993368131,0.700419272571995,1.01639
0.741762749870542,-1.3271985108009,0.699769641723092,1.01639
11.8951994814377,-1.17074431841539,0.69504826246116,1.01639
11.7166420572324,-1.17268617111872,0.695865002387101,1.01639
11.6387939423031,-1.17444251310556,0.6965593785627,1.01639
0.767494366185524,-1.3115921979368,0.699075862909742,1.01639
8.4561225153623,-1.16780921688253,0.693966145193161,1.01639
12.0277090759429,-1.1760857019602,0.697177961457772,1.01639
0.603184668553581,-1.23189373936745,0.695201450522491,1.01639
0.751047150913428,-1.29599242623115,0.698361047236659,1.01639
9.36598920083167,-1.16526487866634,0.693082472471486,1.01639
7.19031676760116,-1.17840421878367,0.697750681138841,1.01639
0.56491433316091,-1.2281624722299,0.695007203808343,1.01639
0.654763047166772,-1.23740619359558,0.695486768175608,1.01639
0.764179319855012,-1.28039485556504,0.697628555919424,1.01639
2.11765715948985,-1.1620838382909,0.692550118566486,1.01639
4.68656429793972,-1.18164426580831,0.698266255244042,1.01639
0.470071337425059,-1.22180095063194,0.694674012999319,1.01639
0.715709378543255,-1.24913815123831,0.6960854062906,1.01639
0.755480402676552,-1.26474994957499,0.696867656259598,1.01639
1.25634949226425,-1.15808029644746,0.692225778367528,1.01639
0.171341229025527,-1.21156891571647,0.694138560201985,1.01639
0.319460721679917,-1.2156291481475,0.694351779031515,1.01639
2.61879654168905,-1.18494662926796,0.698565348755362,1.01639
1.25601825353238,-1.15594716605945,0.692103508423523,1.01639
0.00861249013132454,-1.20732489403972,0.693910414347831,1.01639
-0.153619666969225,-1.20418920233261,0.693740833626644,1.01639
2.0841016666455,-1.18827853378114,0.698755733126245,1.01639
1.15269742773429,-1.15154231103012,0.691844167364176,1.01639
2.54776315772347,-1.20009223680952,0.693972716741315,1.01639
